Date,Open,High,Low,Close,Volume,OpenInt
20081218,7.2355,7.2355,6.3453,6.3453,12355,0
20081219,6.3358,6.904,6.3263,6.904,13146,0
20081222,6.904,6.904,6.5821,6.6578,11895,0
20081223,6.62,6.62,6.62,6.62,217,0
20081229,6.6294,6.7809,6.6294,6.7715,3952,0
20081230,6.7809,6.8852,6.6294,6.7715,7853,0
20081231,6.8661,6.904,6.8094,6.8094,4910,0
20090105,7.4818,7.4818,6.6578,6.8188,2481,0
20090106,6.6673,7.245,6.6294,7.245,14008,0
20090107,7.1029,7.5764,6.9136,6.9136,45995,0
20090108,6.6767,6.7809,6.6578,6.7809,4312,0
20090112,6.7336,7.2166,6.7336,6.8094,1942,0
20090113,6.6483,7.1882,6.6483,7.1882,3462,0
20090114,7.1882,7.3776,6.8661,7.2829,17641,0
20090115,7.0082,7.0082,7.0082,7.0082,684,0
20090116,6.8378,7.1787,6.8378,6.9136,1265,0
20090119,7.3302,7.3302,7.3302,7.3302,1,0
20090120,6.8188,7.0461,6.6862,7.0461,928,0
20090121,7.0555,7.0555,6.7715,6.7715,317,0
20090122,6.724,6.9136,6.724,6.9136,383,0
20090123,7.0366,7.0366,6.6388,7.0082,372,0
20090126,7.0366,7.0366,6.5158,6.6104,3362,0
20090127,6.6104,6.6104,6.4684,6.5725,1207,0
20090128,6.6104,6.6104,6.6104,6.6104,10,0
20090129,6.5346,6.5346,6.5346,6.5346,1116,0
20090130,6.4589,6.4589,6.3832,6.44,2039,0
20090202,6.5346,6.5346,5.5971,5.957,7448,0
20090203,5.9664,5.9664,5.6823,5.6823,1090,0
20090204,5.6823,5.6823,5.3982,5.5119,2845,0
20090205,5.1141,5.5876,4.8299,5.4361,14900,0
20090206,5.4361,6.5252,5.4361,5.8055,4011,0
20090209,5.4929,5.8434,5.4929,5.8434,4023,0
20090210,5.9855,6.1843,5.6823,6.1843,11077,0
20090211,6.3263,6.5252,6.1558,6.1937,7768,0
20090212,6.3453,6.3453,6.3453,6.3453,340,0
20090213,6.3453,6.4116,6.3453,6.4116,462,0
20090216,6.2506,6.3453,5.6823,5.6823,3485,0
20090217,5.4929,5.4929,5.1331,5.1331,5502,0
20090218,5.0099,5.0099,4.9057,5.0004,4991,0
20090219,5.1235,5.1235,5.1047,5.1047,985,0
20090220,5.1047,5.1047,5.1047,5.1047,10,0
20090223,4.8774,5.0857,4.8774,5.0857,1362,0
20090224,5.1047,5.5876,4.6027,5.5876,17403,0
20090225,5.4361,6.0612,5.4361,5.6823,3045,0
20090226,5.7297,5.957,5.7297,5.957,7656,0
20090227,5.6823,5.8717,5.6823,5.8717,1455,0
20090302,5.7486,5.7486,5.7202,5.7202,668,0
20090303,5.4929,5.6065,5.3887,5.474,13125,0
20090304,5.3414,5.6729,5.3414,5.6729,919,0
20090305,5.7108,5.9192,5.5876,5.9192,2171,0
20090306,5.7771,5.9192,5.3982,5.9192,14577,0
20090309,5.5876,5.5876,5.5876,5.5876,1,0
20090310,5.5971,5.5971,5.5971,5.5971,401,0
20090311,5.5971,5.6823,5.5971,5.6823,6,0
20090312,5.5971,5.6823,5.5971,5.6823,654,0
20090313,5.5876,6.4305,5.5876,6.4305,6439,0
20090316,5.7959,6.2032,5.7959,6.0612,2163,0
20090317,6.4305,6.4305,6.2506,6.2506,400,0
20090318,6.4305,6.4305,6.3642,6.3926,1078,0
20090319,6.3737,6.5346,6.3737,6.5346,106,0
20090320,6.6104,6.6104,6.6104,6.6104,31,0
20090323,6.6767,7.0082,6.5821,7.0082,1433,0
20090324,7.0366,7.0745,7.0082,7.0082,923,0
20090325,7.1029,7.1029,6.9608,6.9608,352,0
20090326,7.2923,7.2923,7.2923,7.2923,2,0
20090327,7.2923,7.2923,7.1976,7.1976,55,0
20090330,7.1976,7.1976,7.1976,7.1976,2,0
20090331,7.1976,7.1976,7.1976,7.1976,2,0
20090401,7.1976,7.1976,6.8188,6.8188,2,0
20090402,6.9136,7.2923,6.9136,7.2923,383,0
20090403,7.1976,7.2923,6.9136,7.2923,2420,0
20090406,7.2923,7.4627,7.2923,7.3208,3975,0
20090407,7.387,7.4818,7.3681,7.387,3616,0
20090408,7.387,7.4818,7.3302,7.4818,6514,0
20090409,7.529,7.8605,7.4818,7.8605,9982,0
20090414,7.8605,7.8605,7.529,7.529,3955,0
20090415,7.4818,7.5669,7.4818,7.5669,3838,0
20090416,7.4155,7.8605,7.4155,7.8511,6744,0
20090417,7.6617,7.8605,7.6617,7.8605,311,0
20090420,7.8132,7.8132,7.387,7.4344,2687,0
20090421,7.4439,7.6711,7.4439,7.4818,706,0
20090422,7.4818,8.0973,7.4818,8.0973,7449,0
20090423,8.1447,8.6277,8.1447,8.5804,8396,0
20090424,8.7034,8.8834,8.5804,8.855,5464,0
20090427,8.9023,8.9023,8.1447,8.5708,2681,0
20090428,8.9402,11.734,8.9402,10.89,33783,0
20090429,12.199,12.199,10.89,11.335,46220,0
20090430,11.355,11.355,10.89,11.176,15690,0
20090504,11.355,11.355,10.986,11.176,9043,0
20090505,11.374,11.544,11.365,11.365,4252,0
20090506,11.365,11.365,11.318,11.318,3647,0
20090507,11.327,11.327,10.89,11.176,8939,0
20090508,10.9,11.061,10.9,11.025,8143,0
20090511,11.166,11.46,11.166,11.46,20263,0
20090512,11.46,11.724,11.365,11.365,2775,0
20090513,11.365,11.365,10.844,10.844,6496,0
20090514,10.797,10.797,10.797,10.797,105,0
20090515,10.9,10.9,10.511,10.511,3794,0
20090518,10.749,11.166,10.749,10.89,1770,0
20090519,11.176,11.213,11.176,11.176,1584,0
20090520,11.365,11.365,11.335,11.365,8708,0
20090521,11.081,11.45,10.9,11.44,28510,0
20090522,11.44,11.46,11.223,11.46,9467,0
20090525,11.592,11.592,11.365,11.46,2886,0
20090526,11.233,11.554,11.233,11.544,38347,0
20090527,11.573,11.573,11.384,11.384,1978,0
20090528,11.365,11.394,11.365,11.394,17442,0
20090529,11.478,11.507,11.411,11.507,1551,0
20090601,11.507,12.123,11.46,11.839,8223,0
20090602,12.094,12.179,11.839,11.839,4456,0
20090603,11.876,12.141,11.876,11.895,2550,0
20090604,11.981,12.169,11.932,12.169,1470,0
20090605,12.235,12.274,12.217,12.217,2442,0
20090608,12.217,12.311,12.123,12.311,1739,0
20090609,12.311,13.211,12.311,13.211,4254,0
20090610,13.259,13.732,13.259,13.714,4540,0
20090612,12.899,14.017,12.899,14.017,329,0
20090615,13.269,13.543,13.069,13.543,2838,0
20090616,13.543,13.543,13.069,13.543,1149,0
20090617,13.818,13.818,13.165,13.684,962,0
20090618,13.648,13.648,13.155,13.155,1779,0
20090619,12.88,12.88,12.217,12.444,4798,0
20090622,12.738,12.738,12.311,12.69,4855,0
20090623,11.839,12.596,11.839,12.311,1546,0
20090624,12.217,12.217,11.839,12.123,7991,0
20090625,12.123,12.406,12.123,12.123,1724,0
20090626,12.397,12.397,12.217,12.378,2680,0
20090629,12.397,12.397,12.075,12.075,2529,0
20090630,12.123,14.073,11.942,13.732,29102,0
20090701,13.259,14.007,13.259,14.007,4620,0
20090702,14.007,14.007,13.363,13.912,296,0
20090703,13.922,13.922,13.259,13.6,734,0
20090706,13.259,13.723,13.079,13.723,1088,0
20090707,13.259,13.818,13.069,13.42,1339,0
20090708,13.259,13.259,12.975,12.975,1061,0
20090709,13.259,13.59,12.975,13.448,529,0
20090710,13.439,13.448,13.173,13.259,950,0
20090713,13.714,13.714,13.401,13.448,759,0
20090714,13.306,13.306,13.306,13.306,2238,0
20090715,13.259,13.259,12.786,13.259,704,0
20090716,12.795,13.628,12.795,13.628,1659,0
20090717,13.306,13.315,13.306,13.315,1455,0
20090720,13.628,13.628,13.353,13.59,374,0
20090721,13.59,14.111,13.59,13.827,26388,0
20090722,14.063,14.111,14.054,14.063,2492,0
20090723,14.073,14.073,13.732,14.063,4331,0
20090724,14.073,14.073,14.063,14.073,3716,0
20090727,14.073,14.073,13.496,13.969,4106,0
20090728,13.969,13.969,13.543,13.959,444,0
20090729,13.315,13.959,13.315,13.959,1457,0
20090730,13.959,13.959,13.382,13.95,625,0
20090731,13.732,13.732,13.496,13.496,4937,0
20090803,13.638,13.638,13.211,13.211,117,0
20090804,13.259,13.732,13.259,13.353,1292,0
20090805,13.335,13.448,13.335,13.448,2065,0
20090806,13.448,13.732,13.448,13.732,1897,0
20090807,13.505,13.732,13.505,13.732,7800,0
20090810,13.875,13.95,13.875,13.95,5814,0
20090811,13.638,14.68,13.638,14.68,4773,0
20090812,14.584,14.584,14.017,14.584,3934,0
20090813,14.575,14.575,14.244,14.244,8565,0
20090814,14.575,14.575,14.205,14.253,1007,0
20090817,14.215,14.632,13.969,14.632,1369,0
20090818,14.632,14.68,13.978,14.68,1834,0
20090819,14.538,14.68,14.538,14.68,1033,0
20090820,15.059,15.91,14.774,15.91,1555,0
20090821,16.507,16.631,16.507,16.631,588,0
20090824,16.668,16.668,15.768,15.824,1495,0
20090825,16.147,17.407,16.147,17.407,1096,0
20090826,17.899,19.027,17.388,18.468,7923,0
20090827,18.468,18.562,17.245,17.397,33486,0
20090828,17.994,18.931,17.426,18.931,1779,0
20090831,18.931,18.931,17.805,18.468,6373,0
20090901,18.468,19.017,18.041,18.468,3048,0
20090902,18.089,18.089,17.047,17.284,3089,0
20090903,17.284,17.284,16.952,17.047,955,0
20090904,17.142,17.142,17.028,17.047,2745,0
20090907,16.668,16.668,16.573,16.582,2876,0
20090908,16.678,17.426,16.678,17.426,8070,0
20090909,17.899,18.752,17.426,17.426,513,0
20090910,18.468,18.468,16.602,16.668,4738,0
20090911,16.668,16.839,16.318,16.318,438,0
20090914,17,17,16.299,16.299,2077,0
20090915,16.299,16.886,16.299,16.886,846,0
20090916,17.047,17.218,16.886,16.886,1674,0
20090917,17.047,17.142,17.047,17.142,1205,0
20090918,17.047,17.047,16.573,16.763,2487,0
20090921,17.047,17.047,17.047,17.047,105,0
20090922,16.952,17.047,16.952,17.047,312,0
20090923,16.668,16.668,16.668,16.668,291,0
20090924,16.526,16.952,16.338,16.952,14474,0
20090925,16.668,16.668,16.384,16.384,47120,0
20090928,16.005,16.384,15.768,15.91,2020,0
20090929,15.626,15.626,15.58,15.626,1765,0
20090930,15.626,15.626,15.626,15.626,9028,0
20091001,15.247,15.626,15.162,15.171,9443,0
20091002,15.144,15.171,15.134,15.171,608,0
20091005,15.171,15.171,15.171,15.171,538,0
20091006,15.296,16.005,15.296,16.005,1109,0
20091007,16.1,16.526,16.1,16.194,261,0
20091008,16.384,16.384,16.194,16.194,519,0
20091009,16.573,16.849,16.573,16.8,1174,0
20091012,16.763,16.763,16.763,16.763,235,0
20091013,16.773,17.037,16.773,17.037,271,0
20091014,17.037,17.037,16.857,16.857,5776,0
20091015,17.047,17.047,16.952,17.037,78,0
20091016,17.037,17.037,16.952,16.952,4352,0
20091019,16.952,17.037,16.573,16.952,4113,0
20091020,16.573,16.573,15.438,16.479,1357,0
20091021,15.247,16.384,15.247,15.817,2358,0
20091022,15.817,16.1,15.817,16.1,288,0
20091023,15.741,15.741,15.741,15.741,7257,0
20091026,16.1,16.1,15.399,15.399,139,0
20091027,15.153,15.342,15.153,15.267,3864,0
20091028,14.963,15.389,14.963,15.296,489,0
20091029,15.011,15.296,15.011,15.276,17798,0
20091030,15.276,16.091,15.276,16.091,559,0
20091102,16.1,16.1,15.817,15.817,2199,0
20091103,15.768,15.768,15.768,15.768,20,0
20091104,15.768,15.91,15.768,15.91,590,0
20091105,15.986,15.986,15.589,15.589,1270,0
20091106,15.778,15.778,15.247,15.247,538,0
20091109,15.438,15.438,15.247,15.247,211,0
20091110,15.522,15.522,15.059,15.153,8954,0
20091112,15.247,15.296,15.134,15.134,9575,0
20091113,14.963,15.153,14.963,15.153,11701,0
20091116,15.342,15.342,15.011,15.153,1138,0
20091117,14.963,14.963,14.963,14.963,68,0
20091118,15.522,15.531,15.144,15.144,107,0
20091119,15.153,15.153,15.144,15.144,1747,0
20091120,15.144,15.144,14.963,14.963,600,0
20091123,15.153,15.153,15.153,15.153,21,0
20091124,14.963,15.153,14.868,15.153,725,0
20091125,15.153,15.153,15.153,15.153,225,0
20091126,15.153,15.153,14.68,14.68,344,0
20091127,15.144,15.144,14.301,14.301,709,0
20091130,14.49,15.153,14.49,15.153,657,0
20091201,15.153,15.153,15.144,15.144,786,0
20091202,15.144,15.144,14.215,14.49,5043,0
20091203,14.907,15.144,14.726,14.726,1140,0
20091204,14.538,14.726,14.538,14.726,37,0
20091207,14.632,14.726,14.632,14.726,407,0
20091208,14.726,14.774,14.396,14.396,4416,0
20091209,14.49,14.49,14.159,14.159,3093,0
20091210,14.159,14.205,14.111,14.111,1801,0
20091211,14.433,14.433,14.017,14.177,6616,0
20091214,14.017,14.149,14.017,14.149,5543,0
20091215,14.063,14.063,13.59,13.827,3253,0
20091216,14.007,14.017,13.6,13.6,7765,0
20091217,14.017,14.017,13.022,13.439,4292,0
20091218,13.401,14.499,13.401,14.205,10444,0
20091221,14.584,14.963,14.405,14.85,232413,0
20091222,15.059,15.144,14.859,14.944,22256,0
20091223,15.144,15.144,14.452,14.452,3040,0
20091228,14.376,14.376,14.159,14.301,1683,0
20091229,14.821,15.144,14.821,15.059,1286,0
20091230,15.153,15.531,14.963,15.153,4338,0
20091231,15.342,15.342,14.68,14.68,10391,0
20100104,15.059,15.059,14.774,14.963,16753,0
20100105,15.134,15.153,15.011,15.011,22674,0
20100106,15.02,15.153,14.917,15.011,6071,0
20100107,14.917,14.944,14.802,14.944,1183,0
20100108,15.011,15.153,15.011,15.059,4002,0
20100111,15.342,15.342,14.963,15.153,16114,0
20100112,15.342,15.342,14.538,15.144,6813,0
20100113,15.115,15.115,14.954,14.954,342,0
20100114,14.963,14.963,14.68,14.68,817,0
20100115,14.698,15.201,14.547,15.201,3471,0
20100118,15.059,15.371,15.059,15.153,681,0
20100119,15.342,15.389,15.105,15.389,5457,0
20100120,15.389,15.389,15.153,15.333,1394,0
20100121,15.389,15.389,14.917,15.105,2255,0
20100122,15.105,15.105,14.689,14.689,282,0
20100125,14.774,15.171,14.774,14.831,4591,0
20100126,14.831,14.831,14.831,14.831,1222,0
20100127,15.144,15.144,14.831,14.831,2663,0
20100128,14.925,15.162,14.689,15.162,5673,0
20100129,15.153,15.153,15.153,15.153,122,0
20100201,14.538,15.201,14.528,15.201,4072,0
20100202,15.153,15.153,15.153,15.153,16685,0
20100203,15.153,15.201,15.153,15.201,2546,0
20100204,15.201,15.201,14.68,14.68,3858,0
20100205,14.68,15.059,14.68,15.059,3902,0
20100208,15.059,15.059,14.689,14.963,29378,0
20100209,15.153,15.153,15.144,15.153,740,0
20100210,15.153,15.296,14.774,15.296,3317,0
20100211,15.296,15.296,14.301,15.153,1300,0
20100212,15.191,15.191,15.153,15.191,544,0
20100215,15.191,15.342,14.68,15.342,2957,0
20100216,15.438,15.531,15.438,15.531,615,0
20100217,15.531,16.1,15.342,16.1,4218,0
20100218,16.431,16.716,16.431,16.431,19539,0
20100219,16.431,16.431,16.431,16.431,1161,0
20100222,16.668,16.668,16.1,16.318,835,0
20100223,16.289,16.289,16.194,16.289,1055,0
20100224,16.526,17,16.005,16.573,1898,0
20100225,16.981,17,16.526,17,1623,0
20100226,16.11,17,16.11,17,129916,0
20100301,16.849,16.849,16.716,16.839,10644,0
20100302,15.91,16.905,15.91,16.839,12654,0
20100303,17,17,16.384,16.573,2399,0
20100304,16.384,17.189,16.384,17.047,2859,0
20100305,17.321,17.321,17.047,17.047,432,0
20100308,17.047,17.615,16.431,17.615,60477,0
20100309,17.245,17.994,17.237,17.994,33868,0
20100310,17.947,17.947,17.786,17.947,28631,0
20100311,17.947,18.278,17.899,18.136,42017,0
20100312,18.136,18.136,17.994,18.136,2340,0
20100315,18.136,18.136,17.994,17.994,310,0
20100316,18.259,18.259,18.259,18.259,226,0
20100317,18.41,18.59,18.326,18.326,48011,0
20100318,18.752,18.752,18.193,18.278,1903,0
20100319,17.805,17.947,17.805,17.899,1540,0
20100322,17.899,17.899,17.189,17.189,383,0
20100323,17.189,17.189,16.289,16.289,795,0
20100324,16.289,16.289,15.768,16.005,4983,0
20100325,16.242,16.242,15.91,16.233,2150,0
20100326,16.384,16.8,16.384,16.431,2459,0
20100329,16.289,17.947,16.289,17.189,23529,0
20100330,17.852,18.174,17.436,17.947,976,0
20100331,17.947,18.174,17.899,17.947,6807,0
20100401,17.994,18.174,17.71,18.174,13507,0
20100406,17.568,18.089,17.568,17.994,5424,0
20100407,17.52,18.051,16.763,17.994,6291,0
20100408,18.117,18.117,17.426,17.994,4634,0
20100409,17.994,17.994,17.994,17.994,5626,0
20100412,18.041,18.041,17.473,17.473,4145,0
20100413,17.047,17.284,16.763,17.265,547,0
20100414,16.857,17.663,16.857,17.644,6360,0
20100415,17.994,17.994,17.133,17.142,7852,0
20100416,16.857,16.857,16.857,16.857,1475,0
20100419,16.573,16.573,16.1,16.1,7045,0
20100420,16.147,16.573,16.147,16.573,10230,0
20100421,16.242,16.668,16.052,16.1,3234,0
20100422,16.015,16.526,16.015,16.194,1043,0
20100423,16.194,17.047,16.194,17.047,913,0
20100426,17.047,17.047,16.526,16.857,563,0
20100427,16.668,16.668,16.11,16.479,967,0
20100428,15.91,16.005,15.863,15.863,2436,0
20100429,17.047,17.047,15.438,15.712,1364,0
20100430,15.721,15.768,15.438,15.438,749,0
20100504,15.484,15.484,15.153,15.153,6404,0
20100505,15.237,15.817,15.237,15.438,633,0
20100506,15.438,15.817,15.438,15.817,1229,0
20100507,15.438,15.438,15.296,15.342,1969,0
20100510,15.817,16.052,15.438,15.438,2258,0
20100511,15.438,15.626,15.438,15.598,38799,0
20100512,15.58,15.58,15.438,15.438,4068,0
20100513,15.959,15.959,14.917,15.153,10509,0
20100514,15.153,15.153,14.49,14.726,2330,0
20100517,14.821,14.821,14.594,14.594,1033,0
20100518,15.039,15.049,14.584,15.039,5758,0
20100519,14.642,15.011,14.575,15.011,11722,0
20100520,15.125,15.125,14.442,14.442,2747,0
20100521,14.205,14.205,13.543,14.205,1482,0
20100524,13.922,13.922,13.562,13.562,8350,0
20100525,13.543,13.638,13.165,13.165,1511,0
20100526,14.017,14.017,13.476,13.476,1203,0
20100527,13.684,13.684,13.069,13.069,1519,0
20100528,13.448,14.007,13.448,13.827,2112,0
20100531,13.836,13.875,13.836,13.846,172,0
20100601,14.187,14.632,13.827,13.836,6189,0
20100602,14.205,14.205,13.836,13.836,1411,0
20100604,13.875,14.301,13.875,14.301,92,0
20100607,14.396,14.632,14.396,14.405,1689,0
20100608,14.414,14.414,14.414,14.414,832,0
20100609,14.68,14.68,14.225,14.225,779,0
20100610,13.969,14.291,13.827,14.291,4539,0
20100611,14.291,14.291,14.291,14.291,308,0
20100614,13.931,14.205,13.827,13.836,3049,0
20100615,13.827,13.922,13.827,13.922,359,0
20100616,14.205,14.632,13.827,13.827,4849,0
20100617,13.846,13.875,13.827,13.875,757,0
20100618,13.827,13.827,13.827,13.827,235,0
20100621,13.827,13.827,13.827,13.827,4394,0
20100622,13.827,13.827,13.827,13.827,3258,0
20100623,14.291,14.291,13.827,13.827,762,0
20100624,13.827,13.827,13.827,13.827,3149,0
20100625,14.111,14.291,13.78,14.291,107981,0
20100628,13.922,13.922,13.846,13.846,915,0
20100629,13.846,13.846,13.827,13.827,3497,0
20100630,13.827,13.827,13.827,13.827,2072,0
20100701,13.827,13.827,13.827,13.827,55,0
20100702,13.827,14.121,13.827,14.121,2961,0
20100705,14.111,14.121,14.111,14.121,603,0
20100706,14.139,14.812,14.139,14.347,57131,0
20100707,14.357,14.774,14.357,14.774,26413,0
20100708,14.774,14.774,14.584,14.68,715,0
20100709,15.247,16.147,15.247,15.626,7327,0
20100712,16.289,16.289,15.91,16.242,4791,0
20100713,16.289,16.47,16.242,16.47,11671,0
20100714,16.573,16.573,16.338,16.526,2610,0
20100715,16.526,16.668,16.526,16.668,2157,0
20100716,16.687,16.707,16.687,16.697,571,0
20100719,16.668,16.81,16.573,16.754,1055,0
20100720,16.763,16.763,16.479,16.479,981,0
20100721,16.384,16.384,16.299,16.338,1888,0
20100722,16.338,16.338,15.721,16.27,875,0
20100723,16.289,16.384,16.27,16.338,768,0
20100726,16.8,16.8,16.479,16.479,1760,0
20100727,16.668,16.707,16.668,16.697,1671,0
20100728,16.81,16.81,16.697,16.81,1864,0
20100729,16.857,16.942,16.763,16.857,3718,0
20100730,16.697,16.942,16.697,16.849,560,0
20100802,16.668,16.744,16.573,16.744,1880,0
20100803,16.857,16.857,16.849,16.849,2191,0
20100804,16.857,16.925,16.829,16.925,636,0
20100805,16.952,16.952,16.763,16.952,903,0
20100806,16.915,16.915,16.763,16.905,4661,0
20100809,16.857,16.857,16.573,16.621,1167,0
20100810,16.81,16.81,16.621,16.763,705,0
20100811,16.707,16.707,16.526,16.668,949,0
20100812,16.687,16.687,16.526,16.526,768,0
20100813,16.668,16.668,16.1,16.262,2577,0
20100816,16.262,16.262,16.1,16.1,1858,0
20100817,15.959,16.091,15.626,16.091,932,0
20100818,16.091,16.091,16.091,16.091,173,0
20100819,16.516,16.516,16.516,16.516,10,0
20100820,16.8,16.8,16.289,16.289,186,0
20100823,16.1,16.1,15.91,15.91,294,0
20100824,15.929,15.929,15.296,15.305,4972,0
20100825,15.247,15.247,15.247,15.247,370,0
20100826,15.153,15.438,15.153,15.438,4117,0
20100827,15.438,16.005,15.438,16.005,658,0
20100830,16.1,16.1,15.721,16.1,193,0
20100831,15.91,16.47,15.484,16.47,5310,0
20100901,16.374,16.374,15.674,16.355,439,0
20100902,16.365,16.365,15.91,16.289,136,0
20100903,16.365,16.365,16.1,16.194,865,0
20100906,16.374,16.374,16.338,16.338,122,0
20100907,16.289,16.289,15.817,15.817,3171,0
20100908,15.721,16.157,15.721,16.147,332,0
20100909,15.674,16.052,15.626,16.005,343,0
20100910,16.005,16.005,15.56,15.56,2118,0
20100913,15.541,15.541,15.531,15.541,3814,0
20100914,15.484,15.484,15.153,15.153,2960,0
20100915,14.963,15.153,14.954,14.963,2356,0
20100916,14.963,15.522,14.963,15.522,283,0
20100917,15.598,15.598,15.56,15.56,48,0
20100920,15.522,15.788,15.105,15.788,4056,0
20100921,15.817,16.005,15.541,15.91,3178,0
20100922,16.005,16.005,15.105,15.959,8198,0
20100923,15.807,15.807,15.105,15.692,2933,0
20100924,15.9,15.9,15.153,15.892,637,0
20100927,15.9,15.9,15.162,15.626,625,0
20100928,15.817,15.817,15.153,15.607,3259,0
20100929,15.607,15.607,15.153,15.531,1746,0
20100930,15.153,15.817,15.153,15.817,2895,0
20101001,16.005,16.005,15.153,15.712,1209,0
20101004,15.817,15.817,15.125,15.428,4947,0
20101005,15.484,15.484,15.153,15.484,689,0
20101006,15.484,16.194,15.153,15.863,6413,0
20101007,16.052,16.052,15.986,15.986,9,0
20101008,15.91,16.1,15.817,16.1,868,0
20101011,16.252,16.252,15.305,16.052,452,0
20101012,16.1,16.1,15.153,15.494,1972,0
20101013,15.21,15.626,15.21,15.531,668,0
20101014,15.665,15.665,15.162,15.513,3249,0
20101015,15.494,15.494,15.494,15.494,1,0
20101018,15.513,15.513,15.153,15.438,4796,0
20101019,15.438,15.438,15.153,15.438,3638,0
20101020,15.438,15.438,15.153,15.153,44076,0
20101021,15.153,15.438,15.011,15.379,5674,0
20101022,15.379,15.379,15.153,15.362,859,0
20101025,15.379,15.379,14.963,14.963,1867,0
20101026,15.153,15.153,14.963,15.144,1094,0
20101027,15.153,15.171,14.973,15.162,3368,0
20101028,15.286,15.286,15.068,15.286,583,0
20101029,15.286,15.286,14.973,15.286,1392,0
20101102,15.342,15.57,15.305,15.389,3750,0
20101103,15.626,16.1,15.626,16.091,7049,0
20101104,16.262,16.431,16.11,16.431,3553,0
20101105,16.479,16.479,16.1,16.242,1246,0
20101108,16.242,16.374,15.721,15.721,3427,0
20101109,16.157,16.952,16.157,16.697,28253,0
20101110,17.805,18.145,17.473,17.615,65770,0
20101112,17.52,17.606,17.094,17.331,6464,0
20101115,17.321,17.321,17.274,17.312,1383,0
20101116,17.312,17.312,17.047,17.142,10502,0
20101117,16.971,17.057,16.952,17.009,1302,0
20101118,16.952,17.237,16.773,17.066,2255,0
20101119,17.094,17.103,16.952,16.952,3084,0
20101122,17.018,17.142,16.857,16.876,896,0
20101123,16.876,16.876,16.147,16.612,3251,0
20101124,17.047,17.245,17.047,17.113,10999,0
20101125,17.52,17.52,17.047,17.047,8506,0
20101126,17.133,17.142,16.971,17.142,8797,0
20101129,17.331,17.492,17.094,17.094,989,0
20101130,17.094,17.094,16.631,17.047,2498,0
20101201,17.094,17.094,16.289,16.8,319672,0
20101202,17.028,17.142,16.8,16.925,2112,0
20101203,16.952,17.047,16.915,17.047,929,0
20101206,17.047,17.189,16.915,16.952,2380,0
20101207,17.142,17.142,16.971,16.971,1186,0
20101208,17.047,17.047,16.81,16.81,376,0
20101209,16.942,16.942,16.744,16.8,332,0
20101210,16.744,16.763,16.384,16.516,5947,0
20101213,16.564,16.573,16.536,16.536,411,0
20101214,16.668,17.047,16.479,17.047,1570,0
20101215,17.237,17.237,16.724,16.724,7093,0
20101216,16.724,16.952,16.668,16.952,1196,0
20101217,16.952,16.952,16.668,16.716,1257,0
20101220,16.763,16.839,16.602,16.839,913,0
20101221,16.857,16.857,16.668,16.724,4379,0
20101222,16.829,16.829,16.564,16.8,2780,0
20101223,16.81,16.81,16.555,16.592,774,0
20101227,16.81,16.81,16.488,16.631,180,0
20101228,16.479,16.81,16.479,16.81,1617,0
20101229,16.81,16.81,16.621,16.8,1780,0
20101230,16.81,17.237,16.81,17.237,12277,0
20101231,17.227,17.52,17.179,17.492,18715,0
20110103,17.512,17.512,16.857,17.331,1512,0
20110104,17.321,17.321,17.047,17.237,682,0
20110105,17.179,17.331,16.905,17.331,1305,0
20110107,17.218,17.331,17.218,17.284,1170,0
20110110,17.52,17.52,17.142,17.142,1454,0
20110111,17.094,17.094,16.952,17.047,623,0
20110112,16.971,17.047,16.971,17.047,1598,0
20110113,17.047,17.142,16.952,16.952,1147,0
20110114,16.952,17.037,16.345,16.384,3233,0
20110117,16.404,16.592,16.404,16.488,7236,0
20110118,16.697,16.716,16.404,16.404,3618,0
20110119,16.479,16.479,15.626,16.1,4328,0
20110120,16.081,16.223,15.91,16.194,934,0
20110121,16.1,16.421,16.1,16.384,1290,0
20110124,16.421,16.421,16.147,16.203,766,0
20110125,16.194,16.384,16.11,16.11,2238,0
20110126,16.1,16.11,16.052,16.11,2119,0
20110127,15.968,16.365,15.968,16.194,4522,0
20110128,16.194,16.404,16.194,16.289,6955,0
20110131,15.438,16.242,15.438,16.176,2993,0
20110201,16.279,16.279,15.863,16.167,2519,0
20110202,16.186,16.421,16.025,16.176,4752,0
20110203,16.044,16.404,16.044,16.1,1052,0
20110204,16.1,16.11,16.1,16.1,1095,0
20110207,16.194,17,16.194,17,2690,0
20110208,17.047,17.047,16.915,16.915,402,0
20110209,16.915,16.915,16.289,16.668,2996,0
20110210,16.668,16.915,16.384,16.905,1940,0
20110211,16.526,16.857,15.817,16.857,4747,0
20110214,16.952,16.952,16.338,16.734,1625,0
20110215,16.933,16.933,16.536,16.536,782,0
20110216,16.479,16.479,16.338,16.338,552,0
20110217,16.194,16.338,16.157,16.338,2044,0
20110218,16.242,16.338,16.194,16.338,1164,0
20110221,16.213,16.318,16.213,16.289,2969,0
20110222,16.289,16.338,16.289,16.289,3208,0
20110223,16.289,16.668,16.289,16.536,86043,0
20110224,16.668,16.876,16.658,16.763,784,0
20110225,16.763,16.763,16.687,16.707,117,0
20110228,16.763,16.763,16.526,16.734,3510,0
20110301,16.744,16.744,16.441,16.573,860,0
20110302,16.716,16.925,16.526,16.925,14028,0
20110303,16.905,17.047,16.582,17.047,36833,0
20110304,17,17.265,17,17.265,13104,0
20110307,17.284,17.502,17.057,17.378,76584,0
20110308,17.568,17.615,17.378,17.473,10912,0
20110309,17.512,17.548,17.36,17.482,13844,0
20110310,17.454,17.454,17.094,17.199,1324,0
20110311,17.142,17.142,16.773,16.81,2293,0
20110314,16.763,17.094,16.763,17.094,1439,0
20110315,16.697,17.321,16.697,17.321,1379,0
20110316,17.445,17.445,17.35,17.35,574,0
20110317,17.473,17.473,17.35,17.35,1205,0
20110318,17.473,17.473,17.189,17.189,876,0
20110321,17.047,17.237,17.047,17.237,64,0
20110322,17.35,17.7,17.35,17.548,10143,0
20110323,17.568,17.568,17.473,17.568,627,0
20110324,17.596,17.596,17.284,17.284,2246,0
20110325,17.284,17.378,17,17.378,7049,0
20110328,17.378,17.436,17.331,17.331,1165,0
20110329,17.407,17.426,17.057,17.416,6167,0
20110330,17.426,17.426,17.378,17.378,1884,0
20110331,17.378,17.378,17.066,17.237,1883,0
20110401,17.378,17.378,17.085,17.312,967,0
20110404,17.34,17.34,16.573,17.047,812,0
20110405,16.573,16.849,16.573,16.763,2302,0
20110406,16.631,16.857,16.488,16.857,1510,0
20110407,17.028,17.028,16.857,16.857,148,0
20110408,16.763,16.981,16.668,16.857,870,0
20110411,16.668,16.857,16.582,16.582,4572,0
20110412,16.573,16.612,16.289,16.479,13361,0
20110413,16.497,16.8,16.289,16.384,2439,0
20110414,16.479,16.479,16.052,16.431,3934,0
20110415,16.621,16.621,16.299,16.299,106094,0
20110418,16.289,16.431,15.834,16.431,1843,0
20110419,16.384,16.526,16.384,16.526,363,0
20110420,16.516,16.526,16.384,16.421,500,0
20110421,16.564,16.564,16.147,16.147,1130,0
20110426,16.147,16.147,15.768,15.91,3103,0
20110427,16.005,16.005,15.986,15.995,642,0
20110428,15.995,16.005,15.636,15.636,723,0
20110429,15.721,15.721,15.171,15.626,835,0
20110502,15.995,15.995,15.626,15.626,691,0
20110504,15.721,15.721,15.531,15.531,1039,0
20110505,15.607,15.616,15.438,15.438,160,0
20110506,15.389,15.389,15.153,15.153,4426,0
20110509,15.153,15.153,14.925,15.153,3020,0
20110510,15.162,15.162,14.632,15.059,17131,0
20110511,14.954,14.983,14.954,14.983,110,0
20110512,14.954,15.153,14.954,14.954,591,0
20110513,15.059,15.059,13.941,14.026,6200,0
20110516,13.259,13.732,13.165,13.306,11172,0
20110517,13.335,13.401,13.069,13.145,6786,0
20110518,13.401,13.401,13.041,13.097,11850,0
20110519,13.202,13.202,12.652,12.652,5449,0
20110520,12.558,12.871,12.558,12.786,1270,0
20110523,12.776,12.88,12.776,12.832,1850,0
20110524,12.832,12.832,12.795,12.832,74,0
20110525,12.832,12.871,12.832,12.871,1314,0
20110526,12.88,12.88,12.766,12.766,1729,0
20110527,12.738,12.88,12.738,12.88,661,0
20110530,12.937,13.211,12.832,12.832,1138,0
20110531,12.88,12.88,12.832,12.832,191,0
20110601,12.927,12.927,12.832,12.871,1330,0
20110602,12.88,12.927,12.88,12.927,403,0
20110603,12.927,12.965,12.927,12.927,871,0
20110606,12.927,13.211,12.889,13.211,657,0
20110607,13.211,13.211,12.899,13.211,769,0
20110608,13.24,13.572,13.221,13.401,10400,0
20110609,13.401,13.572,13.401,13.572,422,0
20110610,13.648,13.648,13.315,13.648,5892,0
20110613,13.648,13.714,13.486,13.59,1550,0
20110614,13.638,13.638,13.458,13.543,1276,0
20110615,13.6,13.6,13.173,13.259,5313,0
20110616,13.259,13.259,12.88,12.975,2870,0
20110617,13.069,13.069,12.88,12.88,10188,0
20110620,12.88,12.88,12.596,12.644,523,0
20110621,12.644,12.644,11.602,12.265,2581,0
20110622,12.293,12.293,11.63,11.839,5338,0
20110624,11.648,11.744,10.702,10.949,5407,0
20110627,10.949,10.949,9.944,10.095,7971,0
20110628,10.408,10.607,10.039,10.181,2479,0
20110629,10.181,10.313,10.142,10.228,9127,0
20110630,10.418,10.89,10.369,10.418,2470,0
20110701,10.511,10.797,10.323,10.323,8987,0
20110704,10.418,10.418,9.897,10.029,2870,0
20110705,10.115,10.134,9.707,9.849,1941,0
20110706,9.849,9.849,9.68,9.802,2609,0
20110707,9.755,9.802,9.755,9.755,1033,0
20110708,9.755,9.755,9.66,9.736,380,0
20110711,9.736,9.736,9.565,9.565,4864,0
20110712,9.565,9.565,9.4714,9.4714,1795,0
20110713,9.575,9.716,9.4714,9.4714,9271,0
20110714,9.2053,9.4418,9.1959,9.1959,75273,0
20110715,9.0917,9.0917,8.997,8.997,1483,0
20110718,8.7887,8.9023,8.5235,8.7129,3076,0
20110719,8.7129,8.7129,8.3057,8.3908,1595,0
20110720,8.1447,8.3814,7.9742,8.3814,95320,0
20110721,8.4099,8.4099,7.9931,8.3908,4935,0
20110722,8.3908,8.3908,8.2868,8.3151,1678,0
20110725,8.2868,8.4099,8.2868,8.4099,639,0
20110726,8.3814,8.3814,8.2678,8.372,245,0
20110727,8.372,8.372,8.1542,8.1636,1628,0
20110728,8.1636,8.3341,7.9647,8.3341,8437,0
20110729,8.2868,8.2868,8.0594,8.2868,1485,0
20110801,8.2868,9.0444,8.2868,8.6183,16027,0
20110802,8.6183,8.855,8.6183,8.6183,2036,0
20110803,8.5235,8.5329,8.2868,8.3814,1679,0
20110804,8.372,8.372,7.5764,7.5764,1520,0
20110805,7.3397,7.3397,7.0272,7.2639,2986,0
20110808,6.724,6.9608,6.6767,6.724,5573,0
20110809,6.724,6.9136,6.4495,6.724,8341,0
20110810,6.8094,7.1503,6.8094,6.9987,1873,0
20110811,6.9136,7.387,6.9136,7.1029,5418,0
20110812,7.387,7.5764,7.387,7.5764,18031,0
20110816,8.3341,8.3341,8.05,8.1447,4537,0
20110817,8.1447,8.211,8.1447,8.1447,1274,0
20110818,8.1447,8.1447,7.3397,7.3397,4044,0
20110819,7.3397,7.3397,6.9136,7.2923,2984,0
20110822,7.4818,7.5764,7.4344,7.4818,32713,0
20110823,7.6523,7.6523,7.2923,7.4818,13455,0
20110824,7.5669,7.5669,7.2545,7.3681,163,0
20110825,7.387,7.387,7.226,7.387,713,0
20110826,7.387,7.387,7.3586,7.387,19162,0
20110829,7.4818,7.4818,7.4723,7.4818,816,0
20110830,7.5764,7.6143,7.4723,7.4818,77540,0
20110831,7.5764,7.5764,7.3776,7.3776,666,0
20110901,7.3018,7.3018,7.2545,7.2923,1383,0
20110902,7.2923,7.2923,6.9419,6.9608,1015,0
20110905,6.6294,6.6294,6.3926,6.4874,3059,0
20110906,6.2979,6.3832,6.2506,6.3832,1061,0
20110907,6.26,6.44,6.26,6.4305,1683,0
20110908,6.3832,6.6767,6.3832,6.5537,1134,0
20110909,6.5537,6.7146,6.5537,6.7146,110,0
20110912,6.5537,6.5537,6.2127,6.3453,3074,0
20110913,6.3547,6.3547,6.1748,6.2695,551,0
20110914,6.2411,6.2411,6.1748,6.1748,64,0
20110915,6.1748,6.1748,5.8717,6.0612,15989,0
20110916,6.0612,6.0612,5.6823,5.7771,5651,0
20110919,5.815,5.815,5.7297,5.7486,1086,0
20110920,5.7392,5.758,5.7392,5.758,9550,0
20110921,5.7771,5.7771,5.6729,5.6823,1235,0
20110922,5.6161,5.6255,5.474,5.474,4451,0
20110923,5.3982,5.3982,5.3035,5.3982,6702,0
20110926,5.2089,5.3035,4.8299,5.2372,34009,0
20110927,5.2656,5.2656,5.0383,5.1425,4753,0
20110928,5.1331,5.1898,5.1141,5.171,8085,0
20110929,5.1614,5.1614,5.0194,5.0668,1202,0
20110930,5.0668,5.0668,4.9341,5.0194,647,0
20111003,5.0194,5.0194,4.7448,4.7448,12872,0
20111004,4.7353,4.7448,4.65,4.7353,1811,0
20111005,4.7353,4.8678,4.6974,4.8205,33473,0
20111006,4.8774,4.9057,4.7353,4.8774,14951,0
20111007,5.0099,5.0099,4.849,4.8774,5627,0
20111010,4.9153,4.9153,4.8395,4.8869,3563,0
20111011,4.8774,4.9247,4.7827,4.8583,12968,0
20111012,4.9247,5.0478,4.8299,4.8395,162328,0
20111013,4.849,5.0478,4.8395,4.8395,82041,0
20111014,4.991,5.3982,4.991,5.3982,28425,0
20111017,5.5023,6.6294,5.5023,5.815,34382,0
20111018,5.815,5.815,5.3982,5.4266,23394,0
20111019,5.4456,5.5876,5.2846,5.3509,12344,0
20111020,5.3035,5.3035,5.1235,5.2751,129825,0
20111021,5.3319,5.5403,5.0857,5.5403,17683,0
20111024,5.5782,5.7297,5.4929,5.7297,7956,0
20111025,5.7676,5.815,5.4644,5.4644,5389,0
20111026,5.4929,5.5213,5.3698,5.3698,1892,0
20111027,5.3982,5.9192,5.3982,5.8338,151709,0
20111028,6.118,6.137,5.7959,5.7959,20377,0
20111031,5.8717,5.8717,5.6823,5.7297,4266,0
20111102,5.5592,5.6918,5.3035,5.4929,13491,0
20111103,5.4456,5.7771,5.4456,5.7771,10702,0
20111104,5.8622,5.8622,5.635,5.8055,3575,0
20111107,5.815,5.8717,5.7771,5.7771,2121,0
20111108,5.7771,5.8338,5.6823,5.7771,8676,0
20111109,5.7771,5.7771,5.5876,5.5876,13020,0
20111110,5.4835,5.4929,5.4835,5.4929,2754,0
20111114,5.635,5.635,5.5119,5.5119,5429,0
20111115,5.313,5.313,5.1047,5.2089,26377,0
20111116,5.171,5.171,5.1235,5.152,8743,0
20111117,5.171,5.171,5.0289,5.1425,1896,0
20111118,5.2468,5.2468,4.849,4.849,7126,0
20111121,4.8299,4.8299,4.6121,4.6121,7920,0
20111122,4.6121,4.669,4.2712,4.2808,7064,0
20111123,4.2049,4.4512,3.7976,4.2049,46167,0
20111124,4.2049,4.2049,4.186,4.186,479,0
20111125,4.2049,4.2049,4.1481,4.1575,329,0
20111128,4.167,4.167,3.7976,3.9871,26457,0
20111129,3.9397,4.1575,3.9303,4.1575,104664,0
20111130,4.1575,4.2617,3.9966,4.2524,8126,0
20111201,4.2617,4.3565,3.9776,4.1575,14562,0
20111202,4.1387,4.1387,4.025,4.0912,4034,0
20111205,4.1008,4.1103,3.9397,3.9776,127523,0
20111206,3.9776,4.0724,3.9776,4.0629,3198,0
20111207,4.0724,4.0724,3.8356,3.9776,58988,0
20111208,3.9871,3.9871,3.7882,3.8356,7006,0
20111209,3.8451,3.9018,3.5988,3.9018,9602,0
20111212,3.8356,3.9493,3.8356,3.9493,229008,0
20111213,3.9776,4.0724,3.9776,4.0629,12362,0
20111214,4.0724,4.1481,3.9966,4.0724,8666,0
20111215,4.1197,4.1197,4.025,4.0724,13944,0
20111216,4.1103,4.1481,4.0155,4.0724,8415,0
20111219,4.1197,4.1481,4.0533,4.0533,8786,0
20111220,4.1197,4.1197,4.0818,4.1197,10550,0
20111221,4.1954,4.1954,4.167,4.1766,11116,0
20111222,4.1954,4.2524,4.167,4.2145,5696,0
20111223,4.2617,4.2617,4.2238,4.2238,602,0
20111227,4.2145,4.2145,4.1291,4.167,5446,0
20111228,4.167,4.167,4.1387,4.167,4335,0
20111229,4.1387,4.167,4.1197,4.167,5018,0
20111230,4.167,4.167,4.1575,4.167,1700,0
20120102,4.1481,4.1481,4.1291,4.1291,1047,0
20120103,4.1291,4.1575,4.0724,4.1575,4400,0
20120104,4.1575,4.1575,4.0439,4.0439,1555,0
20120105,4.0724,4.1387,3.9966,4.0629,1750,0
20120109,4.1387,4.1387,4.1197,4.1387,1562,0
20120110,4.1387,4.2524,4.1387,4.2428,1017,0
20120111,4.2428,4.5648,4.2333,4.5648,19852,0
20120112,4.5459,4.9153,4.5459,4.8205,15018,0
20120113,4.8205,4.9626,4.7353,4.7353,6609,0
20120116,4.7258,4.8205,4.7258,4.8111,2118,0
20120117,4.8205,5.2277,4.8205,5.2089,10838,0
20120118,5.4929,5.5687,5.4172,5.5213,16395,0
20120119,5.5213,5.654,5.5119,5.5308,12906,0
20120120,5.5308,5.5782,5.3982,5.3982,4810,0
20120123,5.3509,5.3509,5.0194,5.3414,5667,0
20120124,5.313,5.815,5.294,5.815,19125,0
20120125,5.815,6.2032,5.815,6.2032,8095,0
20120126,6.44,6.6294,6.4211,6.5158,11734,0
20120127,6.5442,6.7715,6.5346,6.7715,15773,0
20120130,6.6957,6.8188,6.6767,6.8188,5739,0
20120131,6.8094,6.9893,6.7619,6.9136,23565,0
20120201,6.9136,6.9136,6.6294,6.8566,13591,0
20120202,6.8188,6.9136,6.8188,6.9136,119430,0
20120203,6.8473,6.9703,6.724,6.9136,16274,0
20120206,6.7715,6.9893,6.7715,6.904,5102,0
20120207,6.904,6.9608,6.7052,6.8188,2680,0
20120208,6.8852,6.9515,6.8852,6.9229,5784,0
20120209,6.9229,6.9229,6.7715,6.8661,9689,0
20120210,6.8852,6.8852,6.6388,6.7999,7365,0
20120213,6.7903,7.2923,6.7903,7.2923,20168,0
20120214,7.6048,7.6048,6.9515,7.1882,16274,0
20120215,7.1882,7.6523,7.1882,7.6523,17750,0
20120216,7.6427,7.6427,7.4344,7.5764,30664,0
20120217,7.6711,8.2393,7.6617,7.7659,121823,0
20120220,8.1352,8.4193,8.05,8.3246,8179,0
20120221,8.4193,8.4287,7.7848,7.7848,14185,0
20120222,7.7659,7.7659,7.387,7.5764,16086,0
20120223,7.4912,7.9079,7.4912,7.7659,13905,0
20120224,7.7659,7.8605,7.6238,7.6238,12503,0
20120227,7.6617,7.6617,7.5006,7.5669,1290,0
20120228,7.5669,7.5669,7.4912,7.4912,827,0
20120229,7.1597,7.207,6.7619,6.7715,12723,0
20120301,6.5442,7.1692,6.5063,7.1029,435115,0
20120302,6.9608,7.1029,6.9608,7.0934,11808,0
20120305,7.0555,7.1692,6.9798,7.0366,41344,0
20120306,7.0366,7.0366,6.7336,6.7525,44168,0
20120307,6.8094,6.9136,6.6767,6.9136,2228,0
20120308,6.9136,7.084,6.8945,7.0745,6511,0
20120309,7.0745,7.0745,6.9608,7.0082,3043,0
20120312,7.0082,7.0082,6.7715,6.8188,1208,0
20120313,6.8661,6.8661,6.7715,6.8188,4310,0
20120314,6.8188,6.9798,6.8188,6.8188,5022,0
20120315,6.8188,6.8661,6.8188,6.8188,7960,0
20120316,6.7052,6.7052,6.3453,6.3737,10054,0
20120319,6.5252,6.62,6.44,6.62,47851,0
20120320,6.4874,6.62,6.44,6.62,2129,0
20120321,6.44,6.44,6.1558,6.2506,12303,0
20120322,6.2979,6.2979,6.0422,6.1274,5461,0
20120323,5.9285,6.2884,5.9285,6.2316,11299,0
20120326,6.2316,6.2316,6.0612,6.1937,10093,0
20120327,6.2032,6.3263,6.2032,6.3263,85244,0
20120328,6.3358,6.5537,6.3263,6.5537,1872,0
20120329,6.44,6.6294,6.3926,6.62,2177,0
20120330,6.6767,6.6767,6.4211,6.601,1977,0
20120402,6.6104,6.62,6.5631,6.62,1875,0
20120403,6.6104,6.6104,6.44,6.44,344,0
20120404,6.4874,6.4874,5.9664,6.0801,6466,0
20120405,5.9664,6.2411,5.9664,6.0801,22407,0
20120410,5.9664,6.0991,5.6823,5.7676,4413,0
20120411,5.5308,5.7676,5.5308,5.7676,4347,0
20120412,5.7676,5.7676,5.6823,5.7486,717,0
20120413,5.7676,5.7771,5.6823,5.6823,63508,0
20120416,5.7865,5.8622,5.7865,5.8529,327,0
20120417,5.7771,5.9759,5.7771,5.7771,2086,0
20120418,5.7865,6.1274,5.7865,6.0612,3119,0
20120419,6.137,6.3074,6.137,6.1558,34438,0
20120420,6.3169,6.3169,6.1274,6.2316,173,0
20120423,6.1937,6.1937,5.5876,5.8338,8290,0
20120424,5.313,6.1464,5.313,6.1464,9101,0
20120425,5.8813,5.9664,5.6729,5.6729,70270,0
20120426,5.6634,5.6634,5.3035,5.3319,5634,0
20120427,5.2656,5.6729,5.2561,5.6729,153607,0
20120430,5.6823,5.815,5.6823,5.7771,435,0
20120502,5.8243,5.8622,5.7202,5.7771,10697,0
20120504,5.8338,5.8529,5.7959,5.8529,14785,0
20120507,5.7771,5.7771,5.5213,5.6823,982,0
20120508,5.7486,5.7486,5.5876,5.5876,42797,0
20120509,5.6161,5.6161,5.5023,5.5119,603,0
20120510,5.4929,5.5119,5.3887,5.4929,978,0
20120511,5.3698,5.5213,5.3698,5.3982,74621,0
20120514,5.3982,5.3982,5.294,5.3793,9798,0
20120515,5.3982,5.3982,5.3414,5.3414,120,0
20120516,5.2277,5.2277,4.8299,5.0194,8714,0
20120517,4.8774,4.8774,4.6595,4.6595,4089,0
20120518,4.6595,5.0194,4.4322,5.0099,64424,0
20120521,4.9815,5.6823,4.9815,5.6729,16841,0
20120522,5.6729,5.8338,5.6634,5.6634,9153,0
20120523,5.5971,5.5971,5.4929,5.4929,8965,0
20120524,5.4929,5.4929,5.3035,5.3035,2677,0
20120525,5.3793,5.3793,5.2089,5.2089,2534,0
20120528,5.2089,5.2089,5.0194,5.1614,1005,0
20120529,5.2089,5.2089,5.0478,5.0478,2416,0
20120530,5.1047,5.1047,4.8016,4.8299,8304,0
20120531,4.7353,4.7353,4.4796,4.7353,11227,0
20120601,4.6879,4.9436,4.5932,4.6879,26109,0
20120604,4.669,4.669,4.3091,4.4227,24909,0
20120605,4.2808,4.3754,4.1387,4.1954,29215,0
20120606,4.186,4.186,4.0724,4.0724,2542,0
20120608,4.025,4.3659,4.025,4.3659,7071,0
20120611,4.3659,4.6027,4.3565,4.5459,3090,0
20120612,4.5459,4.7448,4.5459,4.6595,8885,0
20120613,4.7353,5.1141,4.7353,5.1141,7419,0
20120614,5.1141,5.5876,5.1141,5.5687,5085,0
20120615,5.635,5.8717,5.5782,5.8622,14211,0
20120618,5.8717,5.8717,5.8622,5.8622,5311,0
20120619,5.8717,5.8717,5.7771,5.8529,757,0
20120620,5.8529,5.8529,5.3982,5.3982,1165,0
20120621,5.3982,5.474,5.0668,5.0668,4531,0
20120622,5.1141,5.1235,4.7353,4.8111,6078,0
20120625,4.7353,4.7353,4.5553,4.5553,3114,0
20120626,4.5553,4.8016,4.4322,4.7163,4476,0
20120627,4.9247,5.0099,4.6311,4.6311,5657,0
20120628,4.6311,4.9341,4.3565,4.4227,26465,0
20120629,4.4512,4.4512,3.9871,4.0155,58293,0
20120702,4.006,4.006,3.4852,3.5988,42148,0
20120703,3.6367,3.6935,3.2768,3.3526,40422,0
20120704,3.3621,3.3621,3.1727,3.2673,13607,0
20120705,3.2768,3.4946,3.2485,3.4946,112897,0
20120706,3.4946,3.6746,3.4946,3.6178,21633,0
20120709,3.5893,3.7788,3.5609,3.7788,8811,0
20120710,3.8924,3.8924,3.6935,3.7693,2720,0
20120711,3.7597,3.7597,3.5042,3.5515,19062,0
20120712,3.5042,3.5042,3.4094,3.4189,29970,0
20120713,3.4473,3.4946,3.4378,3.4757,3168,0
20120716,3.4946,3.5042,3.4473,3.4757,4886,0
20120717,3.4852,3.4852,3.4094,3.4473,3239,0
20120718,3.4094,3.6178,3.4094,3.6178,7084,0
20120719,3.6272,3.6272,3.5042,3.5042,905,0
20120720,3.5042,3.5042,3.4567,3.4757,613,0
20120723,3.4094,3.4284,3.3147,3.4284,4378,0
20120724,3.4284,3.4284,3.3336,3.4094,349,0
20120725,3.3431,3.4094,3.3431,3.4094,2120,0
20120726,3.4094,3.4284,3.2389,3.3147,5592,0
20120727,3.3431,3.3904,3.2578,3.381,3824,0
20120730,3.3715,3.3904,3.3715,3.3904,106,0
20120731,3.3904,3.3904,3.22,3.3147,4783,0
20120801,3.2957,3.2957,2.9833,3.1822,18995,0
20120802,3.1822,3.4567,3.1252,3.1822,21396,0
20120803,3.2768,3.2768,2.9833,3.1064,22167,0
20120806,3.0969,3.0969,3.0969,3.0969,677,0
20120807,3.0969,3.2485,3.0969,3.2485,301,0
20120808,3.2768,3.3999,3.2485,3.3431,2469,0
20120809,3.3431,3.3431,3.3431,3.3431,1,0
20120810,3.3431,3.3431,3.3431,3.3431,1,0
20120813,3.2957,3.3904,3.2957,3.3904,1689,0
20120814,3.381,3.381,3.2578,3.2578,364,0
20120816,3.2578,3.2768,3.2578,3.2768,548,0
20120817,3.2863,3.2863,3.2863,3.2863,122,0
20120820,3.3431,3.3431,3.2294,3.2957,3406,0
20120821,3.3052,3.3052,3.2106,3.3052,1109,0
20120822,3.3431,3.3431,3.2485,3.3147,4541,0
20120823,3.3147,3.3715,3.2578,3.3715,486,0
20120824,3.3715,3.5042,3.3715,3.5042,6066,0
20120827,3.5325,3.5325,3.4094,3.4946,9048,0
20120828,3.3904,3.4473,3.3147,3.3999,7214,0
20120829,3.4094,3.4094,3.2578,3.4094,4314,0
20120830,3.4094,3.4473,3.3147,3.3999,1469,0
20120831,3.3147,3.3999,3.1727,3.3621,12471,0
20120903,3.3621,3.3621,3.3147,3.3621,2957,0
20120904,3.3904,3.3904,3.3431,3.3431,43,0
20120905,3.0969,3.2673,3.0969,3.2485,10414,0
20120906,3.2389,3.2768,3.1348,3.2485,4128,0
20120907,3.22,3.4378,3.22,3.3052,6867,0
20120910,3.3147,3.5136,3.3147,3.4094,24544,0
20120911,3.4094,3.4663,3.2957,3.3904,2258,0
20120912,3.3999,3.4378,3.3999,3.4094,717,0
20120913,3.4094,3.4094,3.4094,3.4094,53,0
20120914,3.3621,3.4189,3.3336,3.4094,15124,0
20120917,3.4189,3.4189,3.3336,3.3999,370,0
20120918,3.4094,3.4094,3.3147,3.3336,1532,0
20120919,3.3147,3.4094,3.2106,3.3621,50737,0
20120920,3.3621,3.3621,3.1252,3.1536,15690,0
20120921,3.1536,3.2578,3.1536,3.2578,8917,0
20120924,3.3052,3.3904,3.3052,3.3621,7723,0
20120925,3.3715,3.3715,3.3147,3.3715,2596,0
20120926,3.4094,3.4094,3.3147,3.3999,5235,0
20120927,3.3999,3.5893,3.3242,3.5893,3945,0
20120928,3.5893,3.5893,3.4946,3.4946,8366,0
20121001,3.4946,3.523,3.4757,3.5042,91794,0
20121002,3.4663,3.5609,3.4663,3.5042,3670,0
20121003,3.5042,3.5042,3.3904,3.4946,2019,0
20121004,3.4946,3.4946,3.3242,3.4473,4381,0
20121005,3.4663,3.4663,3.4094,3.4473,1213,0
20121008,3.4473,3.4852,3.4378,3.4852,1168,0
20121009,3.4852,3.6935,3.4852,3.5042,9602,0
20121010,3.5515,3.5515,3.4189,3.5042,782,0
20121011,3.5042,3.5136,3.4757,3.5042,1522,0
20121012,3.4757,3.5893,3.4757,3.5042,15195,0
20121015,3.5042,3.5042,3.4852,3.5042,32778,0
20121016,3.5042,3.5042,3.4189,3.4946,8039,0
20121017,3.4946,3.5042,3.4189,3.5042,2806,0
20121018,3.5042,3.5042,3.4567,3.5042,3374,0
20121019,3.523,3.523,3.4757,3.4757,26400,0
20121022,3.5042,3.5042,3.4757,3.5042,3207,0
20121023,3.4757,3.4946,3.3999,3.4567,5881,0
20121024,3.4094,3.4473,3.3336,3.3715,2742,0
20121025,3.381,3.381,3.381,3.381,64,0
20121026,3.3621,3.3999,3.3147,3.3999,2253,0
20121029,3.4094,3.4094,3.2389,3.2768,7444,0
20121030,3.2389,3.3431,3.1252,3.3431,11969,0
20121031,3.3431,3.5042,3.3242,3.4473,773,0
20121102,3.4473,3.5042,3.2863,3.3621,5021,0
20121105,3.3431,3.4757,3.3431,3.3999,1973,0
20121106,3.4378,3.4378,3.3621,3.4094,8980,0
20121107,3.4378,3.4663,3.3999,3.4094,2305,0
20121108,3.3904,3.4378,3.3904,3.4094,3844,0
20121109,3.3904,3.4378,3.3904,3.3904,3324,0
20121112,3.4094,3.4094,3.3999,3.3999,582,0
20121113,3.3621,3.4284,3.1822,3.3621,6438,0
20121114,3.2389,3.3621,3.1822,3.3621,4741,0
20121115,3.3147,3.3526,3.0211,3.2389,10367,0
20121116,3.0495,3.2294,3.0495,3.1443,2911,0
20121119,3.201,3.201,3.201,3.201,212,0
20121120,3.2294,3.2957,3.22,3.2863,7425,0
20121121,3.2957,3.3052,3.22,3.2863,1717,0
20121122,3.3147,3.3147,3.2673,3.3052,2493,0
20121123,3.3052,3.3052,3.2294,3.3052,502,0
20121126,3.3052,3.3052,3.22,3.2957,2466,0
20121127,3.22,3.2673,3.22,3.2673,1537,0
20121128,3.2578,3.2578,3.1064,3.1915,7037,0
20121129,3.1915,3.2957,3.0022,3.0022,11420,0
20121130,3.078,3.2957,3.078,3.2673,7127,0
20121203,3.2957,3.4094,3.2389,3.4094,6104,0
20121204,3.3904,3.3904,3.2957,3.3621,3180,0
20121205,3.3621,3.3999,3.2485,3.3999,4994,0
20121206,3.3999,3.3999,3.2485,3.381,1993,0
20121207,3.381,3.4094,3.2389,3.3621,4084,0
20121210,3.381,3.4094,3.3147,3.381,1000,0
20121211,3.3904,3.3904,3.3336,3.3904,750,0
20121212,3.3904,3.3904,3.2294,3.3621,8732,0
20121213,3.3621,3.684,3.2673,3.684,267226,0
20121214,3.6935,3.9493,3.6935,3.7788,19531,0
20121217,3.8735,3.8735,3.5799,3.6556,16721,0
20121218,3.703,3.703,3.5609,3.5988,2493,0
20121219,3.6272,3.6935,3.6272,3.684,1245,0
20121220,3.684,3.6935,3.5988,3.6556,9090,0
20121221,3.6272,3.6272,3.5988,3.5988,538,0
20121227,3.5988,3.6272,3.4094,3.6178,21410,0
20121228,3.6178,3.6935,3.542,3.6935,49153,0
20130102,3.684,3.684,3.5515,3.6367,795,0
20130103,3.5893,3.6462,3.5042,3.5988,72312,0
20130104,3.5988,3.5988,3.523,3.5799,956,0
20130107,3.5515,3.5799,3.5042,3.542,1980,0
20130108,3.542,3.542,3.4094,3.4946,1377,0
20130109,3.5042,3.523,3.4946,3.5136,27288,0
20130110,3.5515,3.5893,3.5042,3.5042,8781,0
20130111,3.5042,3.5609,3.5042,3.5515,16357,0
20130114,3.5325,3.5704,3.5325,3.5515,13489,0
20130115,3.5515,3.5609,3.4284,3.4852,8472,0
20130116,3.4757,3.5325,3.4473,3.5325,5132,0
20130117,3.5136,3.5609,3.4757,3.5515,1604,0
20130118,3.5609,3.5609,3.5325,3.5609,171640,0
20130121,3.5799,4.3187,3.5799,4.0912,301500,0
20130122,4.0345,4.0724,3.9493,3.9871,12579,0
20130123,4.0155,4.025,3.9114,3.9681,8402,0
20130124,3.8924,4.2049,3.8924,4.1197,80726,0
20130125,4.1197,4.1197,4.025,4.0912,8180,0
20130128,4.0912,4.3375,4.0629,4.2808,45422,0
20130129,4.3091,4.3375,4.1954,4.3091,28922,0
20130130,4.3187,4.489,4.1197,4.2808,179004,0
20130131,4.2524,4.2524,3.9776,4.186,38568,0
20130201,4.0724,4.1387,3.9208,4.0439,15517,0
20130204,3.9303,4.1291,3.7788,4.0533,36841,0
20130205,4.0533,4.1481,4.006,4.1387,8016,0
20130206,4.1481,4.167,4.0724,4.1008,6736,0
20130207,4.0912,4.167,3.9966,4.0533,11833,0
20130208,4.0533,4.0533,3.9114,4.0533,15836,0
20130211,4.0724,4.2333,4.0629,4.1575,11852,0
20130212,4.1575,4.2524,4.1481,4.2238,114726,0
20130213,4.2428,4.3375,4.1481,4.186,38045,0
20130214,4.186,4.2428,4.1481,4.1575,52086,0
20130215,4.186,4.2428,4.1481,4.2145,12397,0
20130218,4.2145,4.4038,4.2145,4.4038,89844,0
20130219,4.4038,4.6121,4.328,4.6121,46512,0
20130220,4.6406,4.6406,4.4038,4.4038,15131,0
20130221,4.3091,4.4985,4.2712,4.4796,20421,0
20130222,4.4512,4.5553,4.4512,4.5364,33938,0
20130225,4.5269,4.6785,4.5269,4.6406,42007,0
20130226,4.6406,4.8869,4.6406,4.8111,38624,0
20130227,4.8111,4.8774,4.6027,4.7069,20020,0
20130228,4.65,4.7827,4.65,4.7069,11451,0
20130301,4.6216,4.7163,4.6216,4.7163,3968,0
20130304,4.7258,4.7258,4.5364,4.5459,27116,0
20130305,4.5838,4.5838,4.4227,4.4512,9045,0
20130306,4.4606,4.5553,4.4606,4.5459,9267,0
20130307,4.5364,4.6216,4.5364,4.5364,6668,0
20130308,4.5364,4.5364,4.328,4.489,19901,0
20130311,4.6311,4.6311,4.4512,4.4985,11959,0
20130312,4.508,4.5459,4.4417,4.4417,6372,0
20130313,4.4512,4.489,4.1387,4.3754,47190,0
20130314,4.347,4.3565,4.2238,4.3375,12314,0
20130315,4.3091,4.4512,4.186,4.3091,34646,0
20130318,4.4322,4.489,4.4227,4.489,4016,0
20130319,4.4227,4.489,4.4038,4.4606,15557,0
20130320,4.4606,4.489,4.4606,4.4701,9265,0
20130321,4.4512,4.4512,4.2145,4.3849,3990,0
20130322,4.2333,4.2617,4.025,4.2428,16744,0
20130325,4.2712,4.2712,4.0912,4.1575,4561,0
20130326,4.0533,4.1387,3.7788,3.8924,32670,0
20130327,4.0724,4.0724,3.8072,3.9871,8794,0
20130328,4.0439,4.1103,3.9871,4.0533,12361,0
20130402,3.9587,3.9587,3.8735,3.9397,33395,0
20130403,3.9397,3.9397,3.9018,3.9018,23665,0
20130404,3.9018,3.9018,3.7882,3.7882,6626,0
20130405,3.9018,3.9587,3.7882,3.7882,12086,0
20130408,3.6935,3.883,3.6935,3.7976,2257,0
20130409,3.826,3.9114,3.826,3.8356,4566,0
20130410,3.8072,3.8072,3.5704,3.5893,44034,0
20130411,3.5988,3.6178,3.4757,3.5988,19008,0
20130412,3.5988,3.5988,3.4567,3.4946,17354,0
20130415,3.4663,3.5136,3.4567,3.5136,7572,0
20130417,3.5325,3.5325,3.4094,3.4757,3230,0
20130418,3.4189,3.4189,3.2863,3.2863,1938,0
20130419,3.3336,3.3336,3.1252,3.3242,27039,0
20130422,3.3904,3.3904,3.0873,3.2673,18614,0
20130423,3.1252,3.2389,3.1252,3.22,2957,0
20130424,3.2389,3.2957,3.22,3.2768,5122,0
20130425,3.2673,3.2957,3.1727,3.1727,3270,0
20130426,3.1727,3.2578,3.078,3.2578,18180,0
20130429,3.2863,3.3526,3.2863,3.3242,10581,0
20130430,3.3242,3.3242,3.3147,3.3147,733,0
20130502,3.3147,3.3147,3.3052,3.3052,48,0
20130506,3.3052,3.3052,3.0873,3.22,6136,0
20130507,3.1443,3.3147,3.1443,3.2957,3380,0
20130508,3.2957,3.3431,3.2673,3.3431,5393,0
20130509,3.4094,3.4567,3.381,3.381,19114,0
20130510,3.4094,3.4663,3.381,3.4663,6204,0
20130513,3.4663,3.6556,3.4567,3.5988,7832,0
20130514,3.6178,3.7314,3.6083,3.7314,2968,0
20130515,3.7976,4.167,3.7976,4.167,11308,0
20130516,4.2145,4.2238,4.0629,4.2238,23638,0
20130517,4.2524,4.2524,4.1291,4.2428,11648,0
20130520,4.167,4.1766,4.1197,4.167,121423,0
20130521,4.167,4.167,4.0724,4.167,113175,0
20130522,4.0912,4.0912,4.0912,4.0912,91,0
20130523,4.0912,4.0912,3.7693,4.0629,12910,0
20130524,4.0629,4.0629,3.9493,4.0533,612,0
20130527,3.7693,4.1575,3.7693,4.1575,5750,0
20130528,4.025,4.1575,4.025,4.0724,823,0
20130529,4.2333,4.2333,3.9966,4.0629,2881,0
20130531,4.0533,4.167,4.0533,4.0912,802,0
20130603,4.1766,4.1766,4.0912,4.1575,138,0
20130604,4.1387,4.1387,3.9681,4.1008,1304,0
20130605,4.0345,4.0818,4.0345,4.0818,212,0
20130606,4.006,4.025,4.006,4.0155,1407,0
20130607,4.0155,4.0155,3.8545,3.9776,2077,0
20130610,3.8924,4.2049,3.8924,4.2049,14087,0
20130611,4.0533,4.1954,4.0533,4.167,1416,0
20130612,4.1575,4.1575,3.9397,4.025,19958,0
20130613,3.883,4.2145,3.883,4.1575,64679,0
20130614,4.0912,4.2238,4.0912,4.2238,4164,0
20130617,4.2238,4.2428,3.9681,4.2428,6507,0
20130618,4.2524,4.3091,4.167,4.3091,54444,0
20130619,4.3375,4.489,4.3375,4.489,7030,0
20130620,4.5932,4.5932,4.1387,4.4701,13192,0
20130621,4.1008,4.3565,4.1008,4.2901,3905,0
20130624,4.0724,4.1575,4.0724,4.1481,2345,0
20130625,4.1008,4.1575,4.1008,4.1575,1321,0
20130626,4.1197,4.1197,4.1008,4.1008,263,0
20130627,4.1291,4.1954,3.9303,3.9871,9424,0
20130628,3.9871,3.9871,3.6178,3.9587,21599,0
20130701,3.9493,3.9493,3.7882,3.8072,9948,0
20130702,3.7882,3.9303,3.7882,3.9303,2787,0
20130703,3.8356,4.0439,3.8356,4.0439,1162,0
20130704,4.025,4.0724,3.9303,3.9587,32338,0
20130705,3.9587,3.9587,3.9018,3.9018,179,0
20130708,3.9208,3.9303,3.8167,3.9303,9104,0
20130709,3.9587,3.9776,3.883,3.883,7054,0
20130710,3.9018,3.9303,3.8356,3.9303,1293,0
20130711,3.9303,3.9303,3.8545,3.883,3453,0
20130712,3.9114,3.9114,3.8072,3.8639,5490,0
20130715,3.8356,3.883,3.8356,3.883,212,0
20130716,3.9397,3.9776,3.8639,3.9587,6040,0
20130717,3.9776,3.9776,3.883,3.9587,169,0
20130718,3.9303,3.9303,3.9303,3.9303,53,0
20130722,3.8356,3.8356,3.7314,3.7409,7954,0
20130723,3.6935,3.7125,3.6935,3.7125,204,0
20130724,3.7788,3.8924,3.7597,3.7976,8274,0
20130725,3.9208,3.9776,3.9208,3.9776,4106,0
20130726,3.9776,3.9776,3.9303,3.9493,305,0
20130729,3.9681,3.9776,3.9681,3.9776,468,0
20130730,3.9776,3.9776,3.9208,3.9208,668,0
20130731,3.883,3.883,3.8639,3.8639,1662,0
20130801,3.883,3.883,3.7976,3.8072,2075,0
20130802,3.8072,3.883,3.8072,3.883,3042,0
20130805,3.883,3.883,3.8072,3.883,4379,0
20130806,3.8924,3.9776,3.883,3.9776,46453,0
20130807,3.9397,4.167,3.9397,4.167,14389,0
20130808,4.4512,4.4512,4.3565,4.3944,3822,0
20130809,4.3944,4.4512,4.1197,4.3565,10426,0
20130812,4.3944,4.4038,4.2145,4.2145,3377,0
20130813,4.2333,4.2333,4.1481,4.167,7859,0
20130814,4.167,4.4512,4.167,4.4512,8217,0
20130816,4.4985,4.4985,4.3565,4.3565,434,0
20130819,4.3565,4.5459,4.3565,4.5459,19034,0
20130820,4.6027,4.6216,4.5459,4.6027,5837,0
20130821,4.6027,4.6027,4.4512,4.4796,1321,0
20130822,4.5553,4.5553,4.4796,4.5364,12243,0
20130823,4.5459,4.5932,4.4985,4.5459,4059,0
20130826,4.5459,4.7258,4.5459,4.6406,26503,0
20130827,4.7163,4.7163,4.6406,4.6406,1080,0
20130828,4.6406,4.6406,4.6311,4.6406,2754,0
20130829,4.6406,4.6406,4.5742,4.5742,11301,0
20130830,4.6406,4.6406,4.1766,4.5838,34572,0
20130902,4.4133,4.4133,4.4038,4.4038,805,0
20130903,4.4512,4.65,4.4512,4.65,10760,0
20130904,4.669,4.6879,4.5932,4.6879,2325,0
20130905,4.6879,4.6879,4.5269,4.6406,27481,0
20130906,4.5648,4.6311,4.5648,4.6311,2387,0
20130909,4.5932,4.6311,4.5932,4.6311,929,0
20130910,4.6311,4.9057,4.5459,4.8869,26121,0
20130911,4.9247,5.1047,4.9247,5.0668,14609,0
20130912,5.0668,5.0668,5.0478,5.0478,1557,0
20130913,5.3035,5.8338,5.3035,5.7013,134525,0
20130916,6.1558,6.1558,5.8813,6.118,86295,0
20130917,6.137,6.4967,6.0233,6.4116,101360,0
20130918,6.4116,6.4116,6.2032,6.2411,30707,0
20130919,6.2316,6.5252,6.137,6.3547,69999,0
20130920,6.4116,6.4116,6.3453,6.3547,5814,0
20130923,6.279,6.279,6.0706,6.0706,12290,0
20130924,6.0706,6.0706,5.9192,5.957,18309,0
20130925,5.957,6.0706,5.8717,6.0233,15849,0
20130926,5.9664,5.9664,5.8717,5.9664,21664,0
20130927,6.0327,6.0327,5.8717,5.9001,3203,0
20130930,5.8717,5.9476,5.5876,5.938,32791,0
20131001,5.8813,5.8813,5.7771,5.8434,929,0
20131002,5.8434,5.8434,5.6823,5.7771,5619,0
20131003,5.7392,5.9096,5.7297,5.8434,6128,0
20131004,5.8434,6.0043,5.7771,6.0043,4740,0
20131007,5.9949,5.9949,5.7486,5.8622,2321,0
20131008,5.8243,5.8717,5.7865,5.7865,2307,0
20131009,5.7676,5.7865,5.7486,5.7771,2373,0
20131010,5.7392,6.0612,5.5403,6.0612,30772,0
20131011,6.0612,6.0612,5.938,6.0422,8726,0
20131014,6.0612,6.0612,5.9759,6.0422,25196,0
20131015,6.0517,6.0612,5.9192,5.9855,4061,0
20131016,5.9476,5.9855,5.9285,5.9855,5534,0
20131017,5.9855,5.9855,5.8906,5.9192,3251,0
20131018,5.938,6.0138,5.8717,6.0138,7097,0
20131021,5.9476,6.0612,5.8055,6.0612,10718,0
20131022,6.0612,6.3074,5.9759,6.2221,49204,0
20131023,6.2032,6.2979,6.1558,6.2506,12068,0
20131024,6.3453,6.3453,6.2506,6.3453,17638,0
20131025,6.3453,6.44,6.279,6.3358,21743,0
20131028,6.2979,6.6294,6.2884,6.5821,44272,0
20131029,6.5821,6.6673,6.5346,6.6294,48700,0
20131030,6.6767,6.8094,6.6294,6.6388,32936,0
20131031,6.5442,6.601,6.5346,6.601,2561,0
20131104,6.6578,6.724,6.6294,6.6767,10946,0
20131105,6.6388,6.6578,6.6388,6.6388,7383,0
20131106,6.6294,6.6767,6.4779,6.6767,13123,0
20131107,6.6767,6.724,6.5915,6.724,19988,0
20131108,6.7052,6.7052,6.4874,6.5063,4345,0
20131112,6.4967,6.6104,6.26,6.6104,6603,0
20131113,6.6104,6.6294,6.5725,6.6294,5850,0
20131114,6.6294,6.6388,6.5537,6.6294,33304,0
20131115,6.6388,7.0934,6.6294,6.9608,75216,0
20131118,7.1029,7.1029,6.9703,7.0082,14978,0
20131119,6.9324,7.4344,6.9324,7.4344,57449,0
20131120,7.4344,7.4534,7.1503,7.3681,8570,0
20131121,7.3302,7.3302,7.207,7.2829,4301,0
20131122,7.2829,7.406,7.2829,7.3776,2626,0
20131125,7.3776,7.4248,7.3776,7.387,2708,0
20131126,7.3776,7.4439,6.8378,7.1976,8813,0
20131127,7.0082,7.1976,6.9608,6.9608,26108,0
20131128,6.9608,7.1029,6.7619,6.8852,3577,0
20131129,6.8852,6.8852,6.6767,6.8757,21426,0
20131202,6.9703,7.0082,6.8661,6.8757,14332,0
20131203,6.8757,6.8757,6.7431,6.8661,5146,0
20131204,6.7431,6.7715,6.6483,6.7715,8146,0
20131205,6.7431,6.8661,6.7431,6.7903,15630,0
20131206,6.724,6.724,6.0612,6.7146,47457,0
20131209,6.7146,6.7431,6.6483,6.7431,7433,0
20131210,6.7525,6.7525,6.6294,6.7431,19807,0
20131211,6.7525,6.8661,6.6483,6.8188,4850,0
20131212,6.8566,6.8566,6.5915,6.7715,21547,0
20131213,6.6767,6.8188,6.6483,6.8188,6932,0
20131216,6.8188,6.8188,6.6578,6.6767,1864,0
20131217,6.6767,6.6767,6.44,6.44,2860,0
20131218,6.5252,6.5725,6.3547,6.5631,3353,0
20131219,6.4874,6.5631,6.4874,6.5631,1583,0
20131220,6.5631,6.5631,6.1558,6.5252,38415,0
20131223,6.6104,6.6104,6.2127,6.5631,17076,0
20131227,6.5631,6.5631,6.5631,6.5631,845,0
20131230,6.5346,6.6294,6.4305,6.5252,1970,0
20140102,6.6578,6.6578,6.5821,6.6104,1017,0
20140103,6.6104,6.6483,6.4305,6.6388,1868,0
20140107,6.6294,6.6294,6.4495,6.4967,1944,0
20140108,6.4874,6.62,6.4874,6.62,4350,0
20140109,6.5821,6.5821,6.5631,6.5631,500,0
20140110,6.5725,6.9136,6.5158,6.9136,15708,0
20140113,6.6294,6.904,6.6294,6.904,2398,0
20140114,6.6767,6.8188,6.6767,6.8188,327,0
20140115,6.8188,6.8566,6.724,6.724,1952,0
20140116,6.7336,6.7715,6.724,6.724,2709,0
20140117,6.7336,6.7336,6.724,6.724,574,0
20140120,6.724,6.7619,6.724,6.724,4162,0
20140121,6.724,6.9515,6.724,6.8566,29868,0
20140122,6.9136,7.0461,6.9136,6.9324,4383,0
20140123,7.0082,7.2166,7.0082,7.1787,5134,0
20140124,7.1976,7.2639,7.1597,7.245,8537,0
20140127,7.1408,7.2166,7.065,7.2166,8336,0
20140128,7.2166,7.5764,7.1219,7.4818,24563,0
20140129,7.7659,7.7848,7.6048,7.7375,40897,0
20140130,7.709,8.2678,7.6238,8.2015,28269,0
20140131,8.2678,8.2678,8.1352,8.192,41256,0
20140203,8.192,8.4287,8.1447,8.3151,21053,0
20140204,8.2868,8.2962,8.211,8.2299,7770,0
20140205,8.05,8.05,7.889,7.9931,12728,0
20140206,7.9837,7.9837,7.709,7.709,12431,0
20140207,7.8321,7.8321,7.6333,7.6711,62747,0
20140210,7.6711,7.7942,7.5954,7.5954,2203,0
20140211,7.6238,7.7848,7.406,7.5669,12963,0
20140212,7.5669,7.9553,7.5669,7.8605,17732,0
20140213,7.8984,7.9268,7.8132,7.9268,2985,0
20140214,7.9079,7.9175,7.7375,7.8132,3064,0
20140217,7.728,7.7563,7.6333,7.7375,6166,0
20140218,7.6333,7.7754,7.5006,7.6711,6923,0
20140219,7.7563,7.7563,7.5575,7.6711,4855,0
20140220,7.6711,7.7563,7.6523,7.6711,2064,0
20140221,7.586,7.7185,7.5764,7.7185,2504,0
20140224,7.6333,7.7469,7.6333,7.6711,1799,0
20140225,7.6711,7.6711,7.5102,7.529,5602,0
20140226,7.5669,7.5669,7.3018,7.3018,6650,0
20140227,7.2923,7.2923,6.9703,7.1313,5029,0
20140228,7.0272,7.2923,7.0272,7.2923,3632,0
20140303,7.0745,7.0745,6.5725,6.724,15614,0
20140304,6.6767,6.904,6.6767,6.8661,6879,0
20140305,6.9608,7.1976,6.904,7.1029,44888,0
20140306,7.0555,7.1029,6.9136,6.9136,5367,0
20140307,6.9229,6.9229,6.8188,6.8188,27732,0
20140310,6.6957,6.6957,6.5346,6.62,7190,0
20140311,6.62,6.7903,6.5442,6.7903,5275,0
20140312,6.7431,6.7431,6.6104,6.6294,4542,0
20140313,6.62,6.6767,6.5915,6.6673,6656,0
20140314,6.6673,6.6767,6.3737,6.3926,46842,0
20140317,6.3642,6.5346,6.3642,6.5346,6016,0
20140318,6.5346,6.5725,6.5346,6.5725,5152,0
20140319,6.5821,7.1029,6.5821,7.1029,25197,0
20140320,7.1882,7.3397,7.0082,7.245,7367,0
20140321,7.2923,7.3397,7.207,7.2639,8286,0
20140324,7.2545,7.2545,6.8661,6.9798,3068,0
20140325,6.9229,7.0366,6.9229,7.0366,779,0
20140326,7.0366,7.0366,6.904,6.9798,3291,0
20140327,6.9608,6.9608,6.8378,6.8378,898,0
20140328,6.8188,6.8378,6.601,6.6294,7297,0
20140331,6.62,6.9515,6.5725,6.9515,4795,0
20140401,6.9515,6.9515,6.5725,6.6294,19906,0
20140402,6.6294,6.6294,6.44,6.5631,5857,0
20140403,6.4589,6.6294,6.4589,6.6294,30846,0
20140404,6.5252,6.6862,6.5063,6.6388,24969,0
20140407,6.5346,6.5346,6.4779,6.4779,22268,0
20140408,6.5252,6.5252,6.4779,6.4874,1891,0
20140409,6.4967,6.5252,6.4967,6.4967,2398,0
20140410,6.5252,6.5252,6.4684,6.4874,2325,0
20140411,6.4684,6.4779,6.3926,6.4495,4015,0
20140414,6.4211,6.4211,6.3169,6.3169,1664,0
20140415,6.118,6.2032,6.0612,6.0612,22980,0
20140416,6.0327,6.0327,5.7959,5.9855,7889,0
20140417,6.0138,6.0138,5.9192,5.9192,78522,0
20140422,5.9192,6.1558,5.9192,6.1558,3458,0
20140423,6.1558,6.2221,6.0612,6.0612,4142,0
20140424,6.0422,6.0706,5.9192,5.9192,2365,0
20140425,5.9285,6.0612,5.9285,5.9759,367,0
20140428,5.9759,5.9759,5.9759,5.9759,15,0
20140429,6.0517,6.0517,6.0138,6.0138,26,0
20140430,6.0327,6.0327,5.9476,5.9476,760,0
20140502,6.0138,6.0138,5.938,5.938,51,0
20140505,6.0138,6.0138,5.8243,5.8243,1318,0
20140506,5.8529,5.8529,5.7486,5.8243,422,0
20140507,5.8243,5.8243,5.4835,5.6729,8868,0
20140508,5.654,5.654,5.5687,5.5876,74151,0
20140509,5.5213,5.5213,5.3509,5.3509,807,0
20140512,5.2561,5.3224,5.2183,5.3224,2057,0
20140513,5.3035,5.3509,5.3035,5.3035,66046,0
20140514,5.3603,5.3982,5.3035,5.3035,1587,0
20140515,5.4456,5.6255,5.4456,5.5498,6509,0
20140516,5.4456,5.6065,5.4361,5.5119,1900,0
20140519,5.5119,5.5498,5.4266,5.4266,1775,0
20140520,5.4266,5.455,5.3224,5.455,4511,0
20140521,5.313,5.455,5.3035,5.455,5060,0
20140522,5.4361,5.5023,5.3319,5.5023,2701,0
20140523,5.5023,5.5023,5.3982,5.4456,28983,0
20140526,5.5308,5.5308,5.4456,5.4456,1953,0
20140527,5.4456,5.5023,5.4456,5.4929,651,0
20140528,5.4929,5.6065,5.4929,5.5023,10244,0
20140529,5.4835,5.5498,5.4835,5.5119,370,0
20140530,5.5213,5.5213,5.5213,5.5213,53,0
20140602,5.5971,5.5971,5.5403,5.5403,370,0
20140603,5.6065,5.635,5.4361,5.5403,10030,0
20140604,5.5403,5.5876,5.5403,5.5876,1059,0
20140605,5.5687,5.6823,5.5687,5.635,5904,0
20140606,5.6823,5.6823,5.5876,5.6823,202,0
20140609,5.6823,5.6823,5.635,5.635,440,0
20140610,5.6823,5.6823,5.6444,5.6444,4429,0
20140611,5.6444,5.6634,5.5971,5.5971,4018,0
20140612,5.6161,5.6161,5.5782,5.5782,422,0
20140613,5.474,5.5213,5.474,5.5213,54,0
20140616,5.4644,5.4644,5.4644,5.4644,105,0
20140617,5.4644,5.4644,5.4644,5.4644,301,0
20140618,5.4644,5.4929,5.4644,5.4929,998,0
20140620,5.455,5.4929,5.3982,5.4929,1954,0
20140623,5.4266,5.5876,5.4266,5.5876,754,0
20140624,5.6823,5.6823,5.5687,5.5687,1383,0
20140625,5.5213,5.5213,5.3224,5.5213,3041,0
20140626,6.1348,6.1348,5.7259,5.8135,1408,0
20140627,5.8135,5.8135,5.7453,5.7453,381,0
20140630,5.6966,5.6966,5.5798,5.6869,121,0
20140701,5.5798,5.5798,5.5018,5.5018,3479,0
20140703,5.4532,5.5311,5.4044,5.5018,1229,0
20140704,5.5018,5.5018,5.4044,5.4044,452,0
20140707,5.3948,5.3948,5.2098,5.3364,969,0
20140708,5.346,5.346,5.2584,5.3071,596,0
20140710,5.2292,5.2292,5.1124,5.2,2644,0
20140711,5.0831,5.2292,5.0637,5.2292,1918,0
20140714,5.1124,5.3071,5.1124,5.2584,3720,0
20140715,5.2584,5.2584,5.1416,5.2098,2901,0
20140716,5.2,5.2486,5.1221,5.2486,2121,0
20140717,5.0637,5.2486,5.0637,5.2486,1212,0
20140718,5.2486,5.2876,5.1124,5.2876,1462,0
20140721,5.2876,5.2876,5.161,5.2486,1088,0
20140722,5.1708,5.2292,5.0831,5.2292,1543,0
20140723,5.2,5.2,5.1124,5.1124,1506,0
20140724,5.0831,5.1026,5.0831,5.0831,1085,0
20140725,5.0247,5.0442,4.9371,4.976,3688,0
20140728,5.015,5.0637,5.015,5.015,1166,0
20140729,5.015,5.1416,4.9176,5.1416,1150,0
20140730,5.0929,5.0929,5.0929,5.0929,154,0
20140731,5.0539,5.0539,5.0539,5.0539,52,0
20140801,4.9857,5.0637,4.9468,5.0052,1111,0
20140804,5.015,5.015,4.9468,4.9955,306,0
20140805,5.0637,5.2,4.8299,4.8397,5563,0
20140806,4.8299,4.8591,4.7521,4.7521,4566,0
20140807,4.7521,4.7521,4.5768,4.5768,889,0
20140808,4.5768,4.5768,4.4502,4.4989,2055,0
20140811,4.7423,4.7423,4.5475,4.5475,26747,0
20140812,4.6255,4.6255,4.5963,4.5963,112,0
20140813,4.5378,4.6157,4.5378,4.6157,553,0
20140814,4.4599,4.5573,4.3722,4.5573,61998,0
20140818,4.5573,4.5573,4.5281,4.5281,1820,0
20140819,4.5378,4.5475,4.5378,4.5475,308,0
20140820,4.567,4.5865,4.567,4.5865,156,0
20140821,4.5865,4.8397,4.5768,4.8397,1924,0
20140822,4.8787,5.0442,4.8105,4.8203,12961,0
20140825,4.8981,5.1416,4.8981,5.0052,18841,0
20140826,5.0344,5.385,5.0344,5.1124,21815,0
20140827,5.1513,5.385,5.1513,5.3752,7912,0
20140828,5.385,5.385,4.9565,5.1124,13787,0
20140829,5.1124,5.1124,4.9663,5.0539,4326,0
20140901,5.0539,5.0637,4.9371,4.9371,2438,0
20140902,4.9371,4.9468,4.9176,4.9273,11621,0
20140903,4.9565,5.0831,4.9565,4.9955,1920,0
20140904,5.0247,5.1026,5.0247,5.0247,1589,0
20140905,5.0637,5.0637,4.8689,4.9468,6051,0
20140908,4.8883,5.0539,4.8883,5.0539,2721,0
20140909,5.0539,5.1902,4.9857,5.1902,10834,0
20140910,5.161,5.3558,5.161,5.3266,6316,0
20140911,5.2974,5.2974,4.9176,4.976,35428,0
20140912,5.0637,5.1124,4.9955,4.9955,4099,0
20140915,5.0442,5.1318,5.0442,5.1318,1540,0
20140916,5.1318,5.2778,5.1124,5.161,12199,0
20140917,5.2486,5.2486,5.161,5.161,3546,0
20140918,5.1221,5.1708,5.1124,5.1708,3795,0
20140919,5.239,5.2682,5.1902,5.2584,5562,0
20140922,5.2486,5.2584,5.2486,5.2584,1384,0
20140923,5.2098,5.2098,4.9273,5.0831,6856,0
20140924,5.0442,5.0442,4.9176,4.9176,5187,0
20140925,4.9273,5.0929,4.9176,5.0929,6167,0
20140929,5.0637,5.0637,5.0442,5.0442,353,0
20140930,5.0442,5.1124,5.015,5.1124,1777,0
20141001,5.0344,5.0344,4.9955,4.9955,2286,0
20141002,4.9565,4.9663,4.9468,4.9468,3330,0
20141003,4.9468,5.0637,4.9468,5.0637,389,0
20141006,5.0637,5.0637,4.9663,4.976,2708,0
20141007,4.9663,5.015,4.9663,4.9857,410,0
20141008,4.9857,4.9857,4.9857,4.9857,52,0
20141009,4.976,4.976,4.8397,4.8397,4550,0
20141010,4.8689,4.8689,4.4794,4.6255,3927,0
20141013,4.6255,4.6741,4.6255,4.6644,567,0
20141014,4.6741,4.6741,4.606,4.6255,1311,0
20141015,4.6741,4.6741,4.5573,4.567,1202,0
20141016,4.5963,4.5963,4.382,4.4307,5569,0
20141017,4.4599,4.5865,4.4307,4.5768,32697,0
20141020,4.5768,4.5768,4.5378,4.5378,7003,0
20141021,4.5281,4.5768,4.5281,4.5768,2336,0
20141022,4.5281,4.6352,4.5281,4.6352,10925,0
20141023,4.6157,4.6157,4.5573,4.5573,6426,0
20141024,4.6255,4.7715,4.6255,4.6741,11241,0
20141027,4.6741,4.7521,4.6741,4.7325,1009,0
20141028,4.6937,4.8883,4.6937,4.8591,9170,0
20141029,4.9565,4.9565,4.8203,4.8203,3290,0
20141030,4.8981,4.8981,4.7813,4.8591,159,0
20141031,4.8299,4.8299,4.7813,4.7813,759,0
20141103,4.7813,4.8203,4.7617,4.7617,867,0
20141104,4.7617,4.7715,4.7423,4.7423,1682,0
20141105,4.7715,4.7715,4.7715,4.7715,1286,0
20141106,4.7423,4.8689,4.7229,4.7229,6654,0
20141107,4.8105,4.8105,4.6741,4.6741,950,0
20141110,4.6352,4.6352,4.6157,4.6255,1669,0
20141112,4.6255,4.7617,4.6255,4.7229,4587,0
20141113,4.6547,4.6644,4.6547,4.6644,102,0
20141114,4.6741,4.6741,4.6644,4.6644,497,0
20141117,4.6741,4.6741,4.5475,4.5475,3895,0
20141118,4.5573,4.5573,4.5475,4.5475,206,0
20141119,4.5768,4.5768,4.4696,4.4696,2429,0
20141120,4.4696,4.4696,4.2846,4.2846,3770,0
20141121,4.382,4.382,4.1678,4.1678,7419,0
20141124,4.1678,4.1776,4.0412,4.0607,11478,0
20141125,4.1288,4.1288,3.8951,3.8951,4560,0
20141126,3.9049,4.0412,3.9049,4.012,5327,0
20141127,4.012,4.0412,3.9925,4.0412,788,0
20141128,4.0314,4.0899,3.9925,4.0412,3668,0
20141201,4.012,4.0802,3.9925,4.0802,997,0
20141202,4.0704,4.1678,4.0704,4.0996,2668,0
20141203,4.236,4.3626,4.2262,4.3626,10841,0
20141204,4.4891,4.5281,4.421,4.4794,7647,0
20141205,4.4794,4.5963,4.2846,4.3918,6509,0
20141208,4.2846,4.2846,3.9925,4.2748,28832,0
20141209,4.197,4.2164,4.1872,4.2068,9265,0
20141210,4.1386,4.1386,3.9438,4.1288,21108,0
20141211,3.9925,4.0899,3.9925,4.0899,12225,0
20141212,4.0022,4.0899,3.9828,4.0899,12400,0
20141215,4.1288,4.1288,4.1288,4.1288,616,0
20141216,4.0412,4.0412,3.9438,3.9438,2758,0
20141217,3.9438,3.9438,3.8951,3.8951,15336,0
20141218,3.8951,3.973,3.8951,3.8951,14408,0
20141219,3.973,3.973,3.9146,3.9146,308,0
20141222,3.9535,3.9535,3.7685,3.8561,12264,0
20141223,3.8561,3.8561,3.5933,3.7977,27202,0
20141229,3.7587,3.8854,3.7587,3.8367,3834,0
20141230,3.8951,3.9146,3.8659,3.9146,1854,0
20150102,3.8659,3.8757,3.8659,3.8659,1170,0
20150105,3.8561,3.8561,3.8367,3.8367,1439,0
20150107,3.8367,3.8951,3.8367,3.8951,498,0
20150108,3.8951,3.9925,3.8951,3.9925,693,0
20150109,3.9925,4.2554,3.9925,4.0509,8701,0
20150112,4.0607,4.3334,4.0607,4.3334,10659,0
20150113,4.3722,4.3722,4.2652,4.2652,1544,0
20150114,4.2456,4.2456,4.236,4.236,2116,0
20150115,4.197,4.2846,4.158,4.2846,360,0
20150116,4.197,4.382,4.1776,4.382,4365,0
20150119,4.4307,4.4307,4.2846,4.2846,4206,0
20150120,4.343,4.343,4.236,4.236,541,0
20150121,4.2164,4.2164,4.2164,4.2164,16,0
20150122,4.2164,4.2164,4.2164,4.2164,1000,0
20150123,4.2164,4.2652,4.1872,4.1872,2362,0
20150126,4.2554,4.2554,4.2554,4.2554,92,0
20150127,4.2554,4.2652,4.2554,4.2554,267,0
20150128,4.2554,4.2554,4.1191,4.1191,2797,0
20150129,4.1678,4.1678,4.1678,4.1678,52,0
20150130,4.1386,4.158,4.1386,4.158,514,0
20150202,4.158,4.1678,4.0899,4.0899,1078,0
20150203,4.0704,4.1094,4.0509,4.1094,1356,0
20150204,4.1678,4.4112,4.1678,4.3334,9358,0
20150205,4.3722,4.3722,4.3334,4.3334,7246,0
20150206,4.3334,4.382,4.2652,4.382,3998,0
20150209,4.3918,4.5963,4.382,4.382,10033,0
20150210,4.4307,4.567,4.382,4.567,5435,0
20150211,4.567,4.7423,4.5378,4.5768,19476,0
20150212,4.6741,4.7715,4.5963,4.7617,5281,0
20150213,4.7715,5.0831,4.7715,4.976,7114,0
20150216,4.976,4.976,4.7325,4.8689,10263,0
20150217,4.9176,4.9176,4.7521,4.7521,5998,0
20150218,4.7617,4.7715,4.5281,4.7325,10529,0
20150219,4.6547,4.6741,4.6547,4.6741,325,0
20150220,4.6839,4.7617,4.5963,4.7617,6976,0
20150223,4.7617,4.9468,4.7617,4.9468,3120,0
20150224,4.9565,5.1124,4.8787,4.9176,11645,0
20150225,5.0247,5.0247,4.8981,4.9371,17631,0
20150226,4.9857,5.3266,4.9663,5.3168,19365,0
20150227,5.346,5.6771,5.346,5.5213,9686,0
20150302,5.385,5.5213,5.3558,5.4434,5481,0
20150303,5.4044,5.57,4.8689,5.2584,29746,0
20150304,5.0637,5.2974,5.0344,5.2,8968,0
20150305,5.2292,5.424,5.1805,5.3266,10673,0
20150306,5.3266,5.4044,5.1805,5.4044,11143,0
20150309,5.424,5.5506,5.346,5.4532,7489,0
20150310,5.4044,5.424,5.2194,5.3656,13199,0
20150311,5.239,5.239,4.976,5.2098,15190,0
20150312,5.1221,5.1221,5.0442,5.0442,9466,0
20150313,5.0637,5.0831,4.9663,4.9955,9286,0
20150316,5.015,5.1124,5.015,5.0929,3757,0
20150317,5.1124,5.2486,5.0637,5.1902,8761,0
20150318,5.2584,5.346,5.1708,5.1708,12289,0
20150319,5.1416,5.1416,5.0637,5.1416,4511,0
20150320,5.0734,5.0734,4.6937,4.7229,29284,0
20150323,4.8495,5.1124,4.6741,4.7715,29200,0
20150324,4.7325,4.8689,4.7325,4.8689,5982,0
20150325,4.8689,4.8689,4.7033,4.8397,4888,0
20150326,4.8397,4.8689,4.6839,4.8495,6454,0
20150330,4.8689,4.8689,4.8689,4.8689,179,0
20150331,4.8689,4.8689,4.7715,4.8689,3491,0
20150401,4.8591,4.8591,4.7033,4.8591,21900,0
20150402,4.6741,4.8591,4.6741,4.8591,23014,0
20150407,4.8203,4.8397,4.7325,4.8397,56688,0
20150408,4.7229,4.8203,4.7033,4.8203,49339,0
20150409,4.8105,4.8105,4.6741,4.7909,13266,0
20150410,4.8397,4.8397,4.7521,4.7521,2758,0
20150413,4.6937,4.7715,4.6937,4.7715,1906,0
20150414,4.8397,4.8397,4.7715,4.7715,206,0
20150415,4.7229,4.7229,4.6937,4.6937,2552,0
20150416,4.7131,4.7715,4.7131,4.7521,1460,0
20150417,4.7715,4.8299,4.6937,4.6937,5299,0
20150420,4.6937,4.7229,4.6937,4.6937,5534,0
20150421,4.7033,4.7033,4.6449,4.6449,4015,0
20150422,4.6157,4.6937,4.5963,4.6937,2108,0
20150423,4.7229,4.7229,4.7229,4.7229,206,0
20150424,4.6839,4.6839,4.6839,4.6839,20,0
20150427,4.6839,4.7229,4.6741,4.7229,12174,0
20150428,4.8203,4.8203,4.7521,4.7521,2294,0
20150429,4.7521,5.015,4.7423,4.9663,14803,0
20150430,4.9371,4.9371,4.606,4.8591,18036,0
20150504,4.8495,4.8495,4.8203,4.8203,1273,0
20150505,4.8299,4.8299,4.7715,4.8299,1556,0
20150506,4.8299,4.8299,4.6255,4.8105,5021,0
20150507,4.8105,4.8105,4.6937,4.8105,12913,0
20150508,4.7909,4.8105,4.7909,4.8105,410,0
20150511,4.7909,4.8591,4.7909,4.8591,2705,0
20150512,4.8591,4.8591,4.8591,4.8591,20,0
20150513,4.7715,4.7715,4.7229,4.7229,4983,0
20150514,4.7617,4.8591,4.7229,4.8591,9384,0
20150515,4.8203,4.8397,4.7715,4.8397,2465,0
20150518,4.7423,4.8397,4.7423,4.8397,2817,0
20150519,4.8689,5.0637,4.7521,5.0637,27599,0
20150520,5.0637,5.0637,4.8787,5.0052,7914,0
20150521,5.0052,5.0052,4.9468,5.0052,6221,0
20150522,4.9663,5.0637,4.9273,5.0637,2056,0
20150525,5.0539,5.0637,4.7521,4.7521,10695,0
20150526,4.8203,4.8591,4.8105,4.8591,1027,0
20150527,4.8591,5.0539,4.8591,5.0442,252535,0
20150528,5.0442,5.3364,5.0442,5.3364,22505,0
20150529,5.346,5.5213,5.239,5.239,8415,0
20150601,5.4532,6.0375,5.3558,6.0375,28708,0
20150602,6.0375,6.0375,5.6966,5.8232,14983,0
20150603,5.8621,6.4172,5.8621,6.2322,63892,0
20150605,6.1738,6.2906,5.9887,6.1835,25227,0
20150608,6.3004,6.3588,5.9985,6.0179,18874,0
20150609,6.0472,6.1153,5.9887,5.9887,6816,0
20150610,5.8135,6.0569,5.8037,5.9693,10833,0
20150611,5.9205,5.9985,5.9205,5.9985,1179,0
20150612,6.0375,6.0375,5.9595,5.9595,1384,0
20150615,5.9595,5.9985,5.9401,5.9985,4548,0
20150616,5.9595,5.9887,5.9498,5.9498,3879,0
20150617,5.9401,6.0861,5.9401,5.9693,12264,0
20150618,5.979,6.164,5.9693,6.164,6808,0
20150619,6.1348,6.3686,6.1348,6.2516,17908,0
20150622,6.3393,6.3393,6.164,6.164,8202,0
20150623,6.2614,6.2614,6.0764,6.1153,3389,0
20150624,6.0569,6.0861,6.0375,6.0375,5771,0
20150625,6.0375,6.0375,6.0375,6.0375,4137,0
20150626,6.0375,6.1348,5.8621,5.9011,15789,0
20150629,5.2794,5.8024,5.2794,5.8024,2981,0
20150630,5.8222,5.8222,5.8222,5.8222,51,0
20150701,5.6741,5.8222,5.6544,5.8222,3116,0
20150702,5.8715,5.8715,5.8024,5.8024,849,0
20150703,5.6741,5.8518,5.6741,5.8518,1911,0
20150706,5.8518,5.8518,5.5853,5.8024,3255,0
20150707,5.8024,5.8419,5.6248,5.8419,924,0
20150708,5.832,5.832,5.832,5.832,20,0
20150709,5.8024,5.8024,5.7926,5.7926,164,0
20150710,5.7432,5.7926,5.7235,5.7432,1247,0
20150713,5.7432,5.8024,5.7432,5.8024,542,0
20150714,5.763,5.8912,5.763,5.8715,704,0
20150715,5.8912,5.8912,5.7235,5.8616,3122,0
20150716,5.8715,5.8715,5.7136,5.7728,2925,0
20150717,5.6741,5.7235,5.6544,5.6741,6107,0
20150720,5.5261,5.6248,5.2992,5.6248,13331,0
20150721,5.5459,5.6741,5.5459,5.6741,592,0
20150722,5.684,5.684,5.4274,5.6248,2108,0
20150723,5.6248,5.6643,5.5755,5.6248,2328,0
20150724,5.6643,5.7235,5.6347,5.6347,3438,0
20150727,5.6347,5.6347,5.5459,5.6347,4761,0
20150728,5.7037,5.7037,5.6347,5.6347,659,0
20150729,5.6445,5.8123,5.6445,5.8123,2346,0
20150730,5.8024,5.8715,5.7235,5.8715,1140,0
20150731,5.8715,5.8715,5.8024,5.8222,507,0
20150803,5.8222,5.8222,5.8222,5.8222,203,0
20150804,5.8024,5.911,5.7827,5.911,2417,0
20150805,5.911,6.3748,5.7531,5.9208,15071,0
20150806,5.8616,5.911,5.8024,5.911,10438,0
20150807,5.9208,5.9208,5.7235,5.8518,15003,0
20150810,5.8518,5.8518,5.684,5.8518,6726,0
20150811,5.7235,5.8518,5.7235,5.8518,1469,0
20150812,5.8024,5.8814,5.7334,5.8814,3142,0
20150813,5.9208,5.9208,5.7235,5.8222,5094,0
20150814,5.7235,5.7334,5.6445,5.6445,4126,0
20150817,5.6445,5.8222,5.6445,5.8222,179,0
20150818,5.6051,5.9011,5.6051,5.6347,2001,0
20150819,5.6445,5.6445,5.6445,5.6445,65,0
20150820,5.6445,5.8616,5.6445,5.8616,8575,0
20150821,5.8419,5.8419,5.8419,5.8419,15,0
20150824,5.6939,5.6939,5.309,5.4274,17510,0
20150825,5.4274,5.5755,5.3288,5.4274,5386,0
20150826,5.1511,5.2202,5.0031,5.2202,12082,0
20150827,5.1018,5.2696,5.0327,5.2202,3638,0
20150828,5.2103,5.2103,5.2103,5.2103,10,0
20150831,5.1511,5.1511,5.1018,5.1018,355,0
20150901,5.0327,5.0722,4.9242,5.0722,10217,0
20150902,5.0623,5.0722,4.934,5.0722,3102,0
20150903,5.0722,5.1807,5.0031,5.1807,3462,0
20150904,5.1709,5.2301,5.1314,5.2103,1688,0
20150907,5.2202,5.2202,5.0821,5.1018,2211,0
20150908,5.0821,5.1314,5.013,5.1314,159773,0
20150909,5.0919,5.2202,5.0919,5.1314,2891,0
20150910,5.1906,5.2794,5.1906,5.2301,5491,0
20150911,5.2794,5.2794,5.2301,5.2301,2280,0
20150914,5.2794,5.2794,5.2301,5.2301,13284,0
20150915,5.2794,5.3485,5.1906,5.2696,1019,0
20150916,5.3485,5.3485,5.3288,5.3288,2336,0
20150917,5.309,5.3189,5.309,5.3189,456,0
20150918,5.3485,5.3485,5.2893,5.2893,1072,0
20150921,5.2498,5.3288,5.2498,5.2794,1115,0
20150922,5.2696,5.2794,5.2696,5.2794,1344,0
20150923,5.2202,5.3288,5.2202,5.3288,12945,0
20150924,5.2202,5.2202,5.2202,5.2202,203,0
20150925,5.2696,5.2696,5.0327,5.1314,6071,0
20150928,5.1314,5.1314,5.0821,5.1117,1094,0
20150929,5.161,5.161,4.9735,4.9735,4047,0
20150930,4.9735,4.9735,4.9735,4.9735,6,0
20151001,5.0228,5.0228,4.5393,4.5492,18518,0
20151002,4.5393,4.6775,4.2926,4.6577,19651,0
20151005,4.6775,4.6873,4.638,4.638,1241,0
20151006,4.6873,5.0525,4.6775,5.0525,2869,0
20151007,4.9834,4.9834,4.9834,4.9834,101,0
20151008,5.013,5.013,5.013,5.013,101,0
20151009,4.934,4.9439,4.7564,4.9439,2638,0
20151012,4.8354,4.8551,4.8354,4.8551,1501,0
20151013,4.8354,4.8354,4.7071,4.8156,338,0
20151014,4.7465,4.8354,4.7071,4.8354,956,0
20151015,4.7367,4.8354,4.7367,4.7367,2133,0
20151016,4.7169,4.7367,4.6183,4.7367,2229,0
20151019,4.7367,4.7367,4.7268,4.7367,248,0
20151020,4.7761,4.7761,4.7169,4.7169,203,0
20151021,4.6281,4.6281,4.6281,4.6281,101,0
20151022,4.7367,4.7367,4.7268,4.7268,203,0
20151023,4.7761,4.7761,4.7761,4.7761,101,0
20151026,4.7367,4.7367,4.7268,4.7367,1520,0
20151027,4.7367,4.7367,4.7268,4.7268,203,0
20151028,4.7663,4.7663,4.6775,4.6775,110,0
20151029,4.6775,4.6775,4.638,4.638,777,0
20151030,4.5887,4.7169,4.5887,4.7169,578,0
20151102,4.7663,4.7663,4.638,4.638,1064,0
20151103,4.638,4.638,4.638,4.638,101,0
20151104,4.638,4.638,4.5887,4.638,537,0
20151105,4.7071,4.7071,4.7071,4.7071,51,0
20151106,4.6676,4.7169,4.638,4.6775,4763,0
20151109,4.6775,4.7169,4.6084,4.638,5588,0
20151110,4.7367,4.7367,4.5097,4.7367,2913,0
20151112,4.7367,4.7367,4.7367,4.7367,51,0
20151113,4.5393,4.5393,4.4406,4.4406,2093,0
20151116,4.4209,4.4209,4.2235,4.3025,4972,0
20151117,4.2235,4.263,4.1446,4.263,5352,0
20151118,4.2433,4.263,4.1643,4.2531,1018,0
20151119,4.1643,4.1643,4.1545,4.1545,203,0
20151120,4.115,4.1939,4.0755,4.1939,1116,0
20151123,4.1939,4.2531,4.1939,4.2531,182,0
20151124,4.2729,4.342,4.115,4.263,457,0
20151125,4.342,4.342,4.0953,4.1939,2368,0
20151126,4.1742,4.2531,4.1742,4.2531,64,0
20151127,4.2137,4.2137,4.2137,4.2137,405,0
20151130,4.2137,4.2137,4.2038,4.2038,2959,0
20151201,4.2038,4.2531,4.115,4.2433,20496,0
20151202,4.2433,4.3025,4.2137,4.2334,7469,0
20151203,4.2038,4.2334,4.2038,4.2038,3120,0
20151204,4.1545,4.2235,4.0656,4.2235,6207,0
20151207,4.1446,4.1446,4.1446,4.1446,1119,0
20151208,4.1446,4.1446,4.1446,4.1446,405,0
20151209,4.1841,4.1841,4.1446,4.1446,1617,0
20151210,4.1643,4.1742,4.1446,4.1643,4280,0
20151211,4.1643,4.1643,4.1643,4.1643,101,0
20151214,4.2235,4.2235,3.9472,4.1446,9141,0
20151215,4.0459,4.0854,4.0459,4.0854,1206,0
20151216,4.1051,4.1051,4.1051,4.1051,101,0
20151217,3.9966,3.9966,3.7301,3.9275,16135,0
20151218,3.7893,3.9078,3.7893,3.9078,2300,0
20151221,3.8683,3.8683,3.8683,3.8683,32,0
20151222,3.888,3.888,3.7992,3.8387,3903,0
20151223,3.7597,3.8387,3.7597,3.8387,2933,0
20151228,3.7597,3.8288,3.7597,3.7597,7715,0
20151229,3.8485,3.888,3.8485,3.888,404,0
20151230,3.888,3.888,3.7696,3.7696,1777,0
20160104,3.7696,3.7696,3.7696,3.7696,304,0
20160105,3.7795,3.7795,3.7499,3.7499,787,0
20160107,3.7499,3.7499,3.7499,3.7499,466,0
20160108,3.7696,3.7696,3.7696,3.7696,101,0
20160111,3.7696,3.7795,3.7696,3.7795,203,0
20160112,3.7992,3.8091,3.7992,3.8091,405,0
20160113,3.7992,3.8683,3.7992,3.8683,727,0
20160114,3.8683,3.8683,3.8091,3.8584,9817,0
20160115,3.7795,3.7893,3.7499,3.7499,2070,0
20160118,3.7499,3.7499,3.6808,3.6808,665,0
20160119,3.6808,3.74,3.6808,3.7005,1189,0
20160120,3.7005,3.7005,3.6018,3.6018,2263,0
20160121,3.6315,3.6413,3.6315,3.6413,133,0
20160122,3.6315,3.8387,3.6315,3.8387,5472,0
20160125,3.8485,3.8485,3.8485,3.8485,122,0
20160126,3.8288,3.8288,3.8288,3.8288,101,0
20160127,3.8288,3.8979,3.7893,3.8979,5914,0
20160128,4.036,4.036,3.9472,3.9472,469,0
20160201,3.9472,3.9472,3.9472,3.9472,101,0
20160202,3.9472,3.9472,3.888,3.9275,255,0
20160203,3.9275,3.9472,3.8584,3.9472,7251,0
20160204,3.9472,3.9472,3.9472,3.9472,61,0
20160205,3.9472,3.9472,3.9374,3.9374,71,0
20160208,3.9472,3.9472,3.9472,3.9472,29,0
20160210,3.9472,3.9472,3.9472,3.9472,111,0
20160211,3.9472,3.9472,3.9472,3.9472,20,0
20160212,3.9472,3.9472,3.9472,3.9472,41,0
20160215,3.9374,3.9374,3.9374,3.9374,76,0
20160216,3.9275,3.9275,3.9275,3.9275,71,0
20160217,3.9374,3.9374,3.8683,3.8683,572,0
20160218,3.8683,3.9275,3.8683,3.9176,1921,0
20160219,3.9374,4.0459,3.9176,4.0459,5019,0
20160222,4.0459,4.0459,3.9472,3.9472,2315,0
20160223,3.9472,3.9472,3.9472,3.9472,305,0
20160224,4.036,4.036,3.9768,3.9768,51,0
20160225,3.9768,3.9768,3.8485,3.8485,4528,0
20160226,3.9472,3.9472,3.9078,3.9275,811,0
20160229,3.9472,3.9472,3.9078,3.9078,456,0
20160301,3.9078,3.9176,3.888,3.9176,709,0
20160304,3.9472,3.9472,3.9472,3.9472,1230,0
20160307,3.967,4.0953,3.967,4.0953,2614,0
20160308,4.0064,4.0064,4.0064,4.0064,152,0
20160309,3.9867,3.9867,3.9867,3.9867,91,0
20160310,3.9768,3.9768,3.9768,3.9768,253,0
20160311,3.9768,3.9768,3.9768,3.9768,51,0
20160314,3.967,3.967,3.9472,3.9472,222,0
20160315,3.9374,3.9374,3.9374,3.9374,101,0
20160316,3.9176,3.9176,3.9176,3.9176,166,0
20160317,3.9176,3.9176,3.8979,3.9078,537,0
20160318,3.9078,3.9571,3.9078,3.9571,3849,0
20160321,3.9571,3.9571,3.9176,3.9571,263,0
20160322,3.9472,3.9571,3.9275,3.9571,6211,0
20160323,3.9768,4.0953,3.9374,4.0953,4265,0
20160324,4.036,4.1939,4.036,4.1939,4264,0
20160329,4.2433,4.2433,4.1249,4.1249,1003,0
20160330,4.1249,4.1643,4.115,4.1446,3000,0
20160331,4.1446,4.1446,4.0656,4.1051,456,0
20160401,4.0656,4.0656,4.0459,4.0459,2027,0
20160404,4.0755,4.1446,4.0755,4.1446,2280,0
20160405,4.1446,4.1446,4.1446,4.1446,15,0
20160406,4.1446,4.1446,4.1347,4.1347,740,0
20160407,4.1446,4.1446,4.0163,4.0163,1054,0
20160408,4.0459,4.0459,3.9966,3.9966,1049,0
20160411,3.9966,4.0459,3.7893,4.0459,6308,0
20160412,4.0558,4.0558,4.0558,4.0558,223,0
20160413,4.0656,4.1249,4.0656,4.0953,725,0
20160414,4.0953,4.0953,4.0953,4.0953,781,0
20160415,4.115,4.115,4.115,4.115,212,0
20160418,4.1742,4.1742,4.1742,4.1742,101,0
20160419,4.115,4.1446,4.0953,4.0953,732,0
20160420,4.115,4.115,4.0459,4.0459,2250,0
20160421,4.0459,4.0459,4.036,4.0459,983,0
20160422,4.0459,4.4209,4.0459,4.342,16920,0
20160425,4.342,4.3913,4.263,4.3913,717,0
20160426,4.4702,4.4801,4.4702,4.4801,808,0
20160427,4.4801,4.4801,4.4406,4.4702,233,0
20160428,4.4406,4.4702,4.4406,4.4702,124,0
20160429,4.4406,4.4406,4.342,4.4308,1635,0
20160502,4.4406,4.4702,4.4308,4.4702,1181,0
20160504,4.4702,4.4998,4.4604,4.4998,355,0
20160505,4.4998,4.4998,4.4998,4.4998,128,0
20160506,4.4998,4.4998,4.4012,4.4998,654,0
20160509,4.5393,4.5689,4.5393,4.5689,993,0
20160510,4.5689,4.7268,4.5689,4.6775,4763,0
20160511,4.6775,4.6775,4.6775,4.6775,203,0
20160512,4.7071,4.7169,4.6577,4.6873,1043,0
20160513,4.7268,4.7268,4.5196,4.6183,6279,0
20160516,4.49,4.4998,4.3321,4.411,3283,0
20160517,4.4012,4.4308,4.3025,4.4308,1692,0
20160518,4.4406,4.4406,4.3913,4.3913,71,0
20160519,4.3913,4.3913,4.3814,4.3814,187,0
20160520,4.3814,4.3814,4.3814,4.3814,101,0
20160523,4.342,4.342,4.263,4.342,1008,0
20160524,4.342,4.342,4.342,4.342,3,0
20160525,4.342,4.342,4.342,4.342,101,0
20160527,4.342,4.342,4.342,4.342,15,0
20160530,4.342,4.342,4.342,4.342,101,0
20160531,4.342,4.342,4.342,4.342,101,0
20160601,4.342,4.342,4.1249,4.2531,544,0
20160602,4.263,4.263,4.263,4.263,20,0
20160603,4.2433,4.2433,4.0262,4.0854,2635,0
20160606,4.0854,4.0854,4.0262,4.0262,339,0
20160607,4.0262,4.0656,3.7499,3.9768,11782,0
20160608,3.9768,4.0558,3.7696,3.9472,8573,0
20160609,3.9472,3.9472,3.9176,3.9176,955,0
20160610,3.9472,3.9966,3.9275,3.9867,110,0
20160613,3.9275,3.9472,3.9176,3.9472,1795,0
20160614,3.8485,3.8485,3.7499,3.7499,6006,0
20160615,3.7499,3.7499,3.7005,3.7005,309,0
20160616,3.7005,3.7005,3.6907,3.6907,147,0
20160617,3.6709,3.6709,3.6413,3.6512,933,0
20160620,3.6611,3.6611,3.6018,3.6018,811,0
20160621,3.66106,3.66106,3.60185,3.60185,150,0
20160622,3.63145,3.65119,3.59198,3.65119,245,0
20160623,3.61172,3.7104,3.61172,3.7104,465,0
20160624,3.45383,3.74987,3.2762,3.74987,4414,0
20160627,3.68079,3.69066,3.60185,3.69066,1116,0
20160628,3.7104,3.74,3.7104,3.74,2128,0
20160629,4.11,4.11,3.78,3.9,17,0
20160630,3.9,3.9,3.88,3.88,20,0
20160701,3.88,4,3.88,4,1501,0
20160704,3.98,3.98,3.98,3.98,150,0
20160705,3.98,4,3.98,4,216,0
20160706,4,4.14,3.85,3.85,2894,0
20160707,3.94,3.94,3.94,3.94,100,0
20160708,3.93,3.93,3.93,3.93,60,0
20160711,3.93,3.93,3.93,3.93,150,0
20160712,3.93,3.93,3.93,3.93,500,0
20160713,3.95,4.1,3.94,4.1,272,0
20160714,4.1,4.1,4,4,2523,0
20160715,3.95,3.98,3.95,3.96,250,0
20160718,3.96,3.96,3.9,3.9,90,0
20160719,3.9,3.9,3.89,3.89,460,0
20160720,3.87,3.87,3.87,3.87,180,0
20160721,3.83,3.83,3.81,3.81,123,0
20160722,3.83,3.83,3.73,3.78,2501,0
20160725,3.77,3.8,3.77,3.8,500,0
20160726,3.77,3.8,3.77,3.8,1594,0
20160727,3.81,3.85,3.81,3.85,1560,0
20160728,3.81,3.83,3.74,3.83,2167,0
20160729,3.83,3.83,3.83,3.83,10,0
20160801,3.84,3.84,3.83,3.83,200,0
20160802,3.83,3.85,3.71,3.85,1105,0
20160803,3.83,3.83,3.7,3.79,942,0
20160804,3.79,3.79,3.79,3.79,35,0
20160805,3.79,3.79,3.69,3.69,1372,0
20160808,3.7,3.7,3.64,3.69,4308,0
20160809,3.7,3.7,3.65,3.65,515,0
20160810,3.67,3.67,3.67,3.67,45,0
20160811,3.67,3.71,3.67,3.71,6350,0
20160812,3.72,3.9,3.72,3.9,4977,0
20160816,3.88,3.95,3.88,3.95,39,0
20160817,3.95,4,3.95,3.99,1371,0
20160818,3.95,3.95,3.9,3.9,150,0
20160819,3.9,3.9,3.9,3.9,30,0
20160824,3.88,3.88,3.85,3.88,1060,0
20160825,3.9,3.9,3.9,3.9,2795,0
20160826,3.85,3.85,3.75,3.75,2350,0
20160830,3.8,3.8,3.79,3.8,1005,0
20160831,3.8,3.8,3.79,3.8,530,0
20160901,3.8,3.8,3.75,3.75,2980,0
20160902,3.72,3.72,3.62,3.62,764,0
20160905,3.6,3.62,3.52,3.55,1470,0
20160906,3.6,3.6,3.5,3.55,950,0
20160907,3.54,3.61,3.54,3.61,996,0
20160908,3.63,3.63,3.63,3.63,180,0
20160909,3.63,3.63,3.5,3.52,1359,0
20160912,3.46,3.46,3.46,3.46,190,0
20160913,3.45,3.45,3.37,3.45,3350,0
20160914,3.36,3.36,3.35,3.36,1330,0
20160915,3.39,3.39,3.39,3.39,222,0
20160916,3.39,3.4,3.39,3.4,289,0
20160919,3.4,3.45,3.37,3.45,4647,0
20160920,3.35,3.4,3.32,3.4,2033,0
20160921,3.39,3.4,3.39,3.4,5778,0
20160922,3.4,3.4,3.4,3.4,94,0
20160923,3.39,3.39,3.3,3.36,2935,0
20160926,3.35,3.35,3.35,3.35,250,0
20160927,3.3,3.34,3.3,3.34,1100,0
20160928,3.3,3.34,3.29,3.34,5876,0
20160929,3.34,3.34,3.33,3.33,220,0
20160930,3.33,3.33,3.33,3.33,70,0
20161003,3.34,3.34,3.33,3.33,137,0
20161004,3.34,3.34,3.32,3.32,873,0
20161005,3.34,3.34,3.34,3.34,40,0
20161006,3.34,3.34,3.32,3.32,767,0
20161007,3.32,3.32,3.31,3.32,520,0
20161010,3.3,3.33,3.3,3.33,450,0
20161011,3.33,3.33,3.3,3.3,157,0
20161012,3.3,3.3,3.23,3.25,6015,0
20161013,3.25,3.25,3.25,3.25,15,0
20161014,3.25,3.25,3.24,3.25,1019,0
20161017,3.22,3.22,2.95,3.2,23380,0
20161021,3.29,3.29,3.2,3.2,550,0
20161024,3.2,3.2,3.2,3.2,40,0
20161025,3.29,3.29,3.25,3.25,147,0
20161026,3.25,3.25,3.25,3.25,50,0
20161027,3.14,3.2,3.14,3.2,517,0
20161031,3.2,3.2,3.12,3.2,4230,0
20161103,3.17,3.2,3.05,3.05,3793,0
20161104,3.2,3.2,3.06,3.2,2633,0
